wall_ts,node,seq,sample_index,value
1778033636.84743,1,22,0,65535
1778033636.84743,1,22,1,65535
1778033636.84743,1,22,2,65535
1778033636.84743,1,22,3,65535
1778033636.84743,1,22,4,65535
1778033636.84743,1,22,5,65535
1778033636.84743,1,22,6,65535
1778033636.84743,1,22,7,65535
1778033636.84743,1,22,8,65535
1778033636.84743,1,22,9,65535
1778033636.84743,1,22,10,65535
1778033636.84743,1,22,11,65535
1778033636.84743,1,22,12,65535
1778033636.84743,1,22,13,65535
1778033636.84743,1,22,14,65535
1778033636.84743,1,22,15,65535
1778033636.84743,1,22,16,65535
1778033636.84743,1,22,17,65535
1778033636.84743,1,22,18,65535
1778033636.84743,1,22,19,65535
1778033636.84743,1,22,20,65535
1778033636.84743,1,22,21,65535
1778033636.84743,1,22,22,65535
1778033636.84743,1,22,23,65535
1778033636.84743,1,22,24,65535
1778033636.84743,1,22,25,65535
1778033636.84743,1,22,26,65535
1778033636.84743,1,22,27,65535
1778033636.84743,1,22,28,65535
1778033636.84743,1,22,29,65535
1778033636.84743,1,22,30,65535
1778033636.84743,1,22,31,65535
1778033636.9491148,1,23,0,65535
1778033636.9491148,1,23,1,65535
1778033636.9491148,1,23,2,65535
1778033636.9491148,1,23,3,65535
1778033636.9491148,1,23,4,65535
1778033636.9491148,1,23,5,65535
1778033636.9491148,1,23,6,65535
1778033636.9491148,1,23,7,65535
1778033636.9491148,1,23,8,65535
1778033636.9491148,1,23,9,65535
1778033636.9491148,1,23,10,65535
1778033636.9491148,1,23,11,65535
1778033636.9491148,1,23,12,65535
1778033636.9491148,1,23,13,65535
1778033636.9491148,1,23,14,65535
1778033636.9491148,1,23,15,65535
1778033636.9491148,1,23,16,65535
1778033636.9491148,1,23,17,65535
1778033636.9491148,1,23,18,65535
1778033636.9491148,1,23,19,65535
1778033636.9491148,1,23,20,65535
1778033636.9491148,1,23,21,65535
1778033636.9491148,1,23,22,65535
1778033636.9491148,1,23,23,65535
1778033636.9491148,1,23,24,65535
1778033636.9491148,1,23,25,65535
1778033636.9491148,1,23,26,65535
1778033636.9491148,1,23,27,65535
1778033636.9491148,1,23,28,65535
1778033636.9491148,1,23,29,65535
1778033636.9491148,1,23,30,65535
1778033636.9491148,1,23,31,65535
1778033637.0505412,1,24,0,65535
1778033637.0505412,1,24,1,65535
1778033637.0505412,1,24,2,65535
1778033637.0505412,1,24,3,65535
1778033637.0505412,1,24,4,65535
1778033637.0505412,1,24,5,65535
1778033637.0505412,1,24,6,65535
1778033637.0505412,1,24,7,65535
1778033637.0505412,1,24,8,65535
1778033637.0505412,1,24,9,65535
1778033637.0505412,1,24,10,65535
1778033637.0505412,1,24,11,65535
1778033637.0505412,1,24,12,65535
1778033637.0505412,1,24,13,65535
1778033637.0505412,1,24,14,65535
1778033637.0505412,1,24,15,65535
1778033637.0505412,1,24,16,65535
1778033637.0505412,1,24,17,65535
1778033637.0505412,1,24,18,65535
1778033637.0505412,1,24,19,65535
1778033637.0505412,1,24,20,65535
1778033637.0505412,1,24,21,65535
1778033637.0505412,1,24,22,65535
1778033637.0505412,1,24,23,65535
1778033637.0505412,1,24,24,65535
1778033637.0505412,1,24,25,65535
1778033637.0505412,1,24,26,65535
1778033637.0505412,1,24,27,65535
1778033637.0505412,1,24,28,65535
1778033637.0505412,1,24,29,65535
1778033637.0505412,1,24,30,65535
1778033637.0505412,1,24,31,65535
1778033637.152023,1,25,0,65535
1778033637.152023,1,25,1,65535
1778033637.152023,1,25,2,65535
1778033637.152023,1,25,3,65535
1778033637.152023,1,25,4,65535
1778033637.152023,1,25,5,65535
1778033637.152023,1,25,6,65535
1778033637.152023,1,25,7,65535
1778033637.152023,1,25,8,65535
1778033637.152023,1,25,9,65535
1778033637.152023,1,25,10,65535
1778033637.152023,1,25,11,65535
1778033637.152023,1,25,12,65535
1778033637.152023,1,25,13,65535
1778033637.152023,1,25,14,65535
1778033637.152023,1,25,15,65535
1778033637.152023,1,25,16,65535
1778033637.152023,1,25,17,65535
1778033637.152023,1,25,18,65535
1778033637.152023,1,25,19,65535
1778033637.152023,1,25,20,65535
1778033637.152023,1,25,21,65535
1778033637.152023,1,25,22,65535
1778033637.152023,1,25,23,65535
1778033637.152023,1,25,24,65535
1778033637.152023,1,25,25,65535
1778033637.152023,1,25,26,65535
1778033637.152023,1,25,27,65535
1778033637.152023,1,25,28,65535
1778033637.152023,1,25,29,65535
1778033637.152023,1,25,30,65535
1778033637.152023,1,25,31,65535
1778033637.353824,1,26,0,65535
1778033637.353824,1,26,1,65535
1778033637.353824,1,26,2,65535
1778033637.353824,1,26,3,65535
1778033637.353824,1,26,4,65535
1778033637.353824,1,26,5,65535
1778033637.353824,1,26,6,65535
1778033637.353824,1,26,7,65535
1778033637.353824,1,26,8,65535
1778033637.353824,1,26,9,65535
1778033637.353824,1,26,10,65535
1778033637.353824,1,26,11,65535
1778033637.353824,1,26,12,65535
1778033637.353824,1,26,13,65535
1778033637.353824,1,26,14,65535
1778033637.353824,1,26,15,65535
1778033637.353824,1,26,16,65535
1778033637.353824,1,26,17,65535
1778033637.353824,1,26,18,65535
1778033637.353824,1,26,19,65535
1778033637.353824,1,26,20,65535
1778033637.353824,1,26,21,65535
1778033637.353824,1,26,22,65535
1778033637.353824,1,26,23,65535
1778033637.353824,1,26,24,65535
1778033637.353824,1,26,25,65535
1778033637.353824,1,26,26,65535
1778033637.353824,1,26,27,65535
1778033637.353824,1,26,28,65535
1778033637.353824,1,26,29,65535
1778033637.353824,1,26,30,65535
1778033637.353824,1,26,31,65535
1778033637.455673,1,27,0,65535
1778033637.455673,1,27,1,65535
1778033637.455673,1,27,2,65535
1778033637.455673,1,27,3,65535
1778033637.455673,1,27,4,65535
1778033637.455673,1,27,5,65535
1778033637.455673,1,27,6,65535
1778033637.455673,1,27,7,65535
1778033637.455673,1,27,8,65535
1778033637.455673,1,27,9,65535
1778033637.455673,1,27,10,65535
1778033637.455673,1,27,11,65535
1778033637.455673,1,27,12,65535
1778033637.455673,1,27,13,65535
1778033637.455673,1,27,14,65535
1778033637.455673,1,27,15,65535
1778033637.455673,1,27,16,65535
1778033637.455673,1,27,17,65535
1778033637.455673,1,27,18,65535
1778033637.455673,1,27,19,65535
1778033637.455673,1,27,20,65535
1778033637.455673,1,27,21,65535
1778033637.455673,1,27,22,65535
1778033637.455673,1,27,23,65535
1778033637.455673,1,27,24,65535
1778033637.455673,1,27,25,65535
1778033637.455673,1,27,26,65535
1778033637.455673,1,27,27,65535
1778033637.455673,1,27,28,65535
1778033637.455673,1,27,29,65535
1778033637.455673,1,27,30,65535
1778033637.455673,1,27,31,65535
1778033637.556372,1,28,0,65535
1778033637.556372,1,28,1,65535
1778033637.556372,1,28,2,65535
1778033637.556372,1,28,3,65535
1778033637.556372,1,28,4,65535
1778033637.556372,1,28,5,65535
1778033637.556372,1,28,6,65535
1778033637.556372,1,28,7,65535
1778033637.556372,1,28,8,65535
1778033637.556372,1,28,9,65535
1778033637.556372,1,28,10,65535
1778033637.556372,1,28,11,65535
1778033637.556372,1,28,12,65535
1778033637.556372,1,28,13,65535
1778033637.556372,1,28,14,65535
1778033637.556372,1,28,15,65535
1778033637.556372,1,28,16,65535
1778033637.556372,1,28,17,65535
1778033637.556372,1,28,18,65535
1778033637.556372,1,28,19,65535
1778033637.556372,1,28,20,65535
1778033637.556372,1,28,21,65535
1778033637.556372,1,28,22,65535
1778033637.556372,1,28,23,65535
1778033637.556372,1,28,24,65535
1778033637.556372,1,28,25,65535
1778033637.556372,1,28,26,65535
1778033637.556372,1,28,27,65535
1778033637.556372,1,28,28,65535
1778033637.556372,1,28,29,65535
1778033637.556372,1,28,30,65535
1778033637.556372,1,28,31,65535
1778033637.657082,1,29,0,65535
1778033637.657082,1,29,1,65535
1778033637.657082,1,29,2,65535
1778033637.657082,1,29,3,65535
1778033637.657082,1,29,4,65535
1778033637.657082,1,29,5,65535
1778033637.657082,1,29,6,65535
1778033637.657082,1,29,7,65535
1778033637.657082,1,29,8,65535
1778033637.657082,1,29,9,65535
1778033637.657082,1,29,10,65535
1778033637.657082,1,29,11,65535
1778033637.657082,1,29,12,65535
1778033637.657082,1,29,13,65535
1778033637.657082,1,29,14,65535
1778033637.657082,1,29,15,65535
1778033637.657082,1,29,16,65535
1778033637.657082,1,29,17,65535
1778033637.657082,1,29,18,65535
1778033637.657082,1,29,19,65535
1778033637.657082,1,29,20,65535
1778033637.657082,1,29,21,65535
1778033637.657082,1,29,22,65535
1778033637.657082,1,29,23,65535
1778033637.657082,1,29,24,65535
1778033637.657082,1,29,25,65535
1778033637.657082,1,29,26,65535
1778033637.657082,1,29,27,65535
1778033637.657082,1,29,28,65535
1778033637.657082,1,29,29,65535
1778033637.657082,1,29,30,65535
1778033637.657082,1,29,31,65535
1778033637.858851,1,30,0,65535
1778033637.858851,1,30,1,65535
1778033637.858851,1,30,2,65535
1778033637.858851,1,30,3,65535
1778033637.858851,1,30,4,65535
1778033637.858851,1,30,5,65535
1778033637.858851,1,30,6,65535
1778033637.858851,1,30,7,65535
1778033637.858851,1,30,8,65535
1778033637.858851,1,30,9,65535
1778033637.858851,1,30,10,65535
1778033637.858851,1,30,11,65535
1778033637.858851,1,30,12,65535
1778033637.858851,1,30,13,65535
1778033637.858851,1,30,14,65535
1778033637.858851,1,30,15,65535
1778033637.858851,1,30,16,65535
1778033637.858851,1,30,17,65535
1778033637.858851,1,30,18,65535
1778033637.858851,1,30,19,65535
1778033637.858851,1,30,20,65535
1778033637.858851,1,30,21,65535
1778033637.858851,1,30,22,65535
1778033637.858851,1,30,23,65535
1778033637.858851,1,30,24,65535
1778033637.858851,1,30,25,65535
1778033637.858851,1,30,26,65535
1778033637.858851,1,30,27,65535
1778033637.858851,1,30,28,65535
1778033637.858851,1,30,29,65535
1778033637.858851,1,30,30,65535
1778033637.858851,1,30,31,65535
1778033637.959659,1,31,0,65535
1778033637.959659,1,31,1,65535
1778033637.959659,1,31,2,65535
1778033637.959659,1,31,3,65535
1778033637.959659,1,31,4,65535
1778033637.959659,1,31,5,65535
1778033637.959659,1,31,6,65535
1778033637.959659,1,31,7,65535
1778033637.959659,1,31,8,65535
1778033637.959659,1,31,9,65535
1778033637.959659,1,31,10,65535
1778033637.959659,1,31,11,65535
1778033637.959659,1,31,12,65535
1778033637.959659,1,31,13,65535
1778033637.959659,1,31,14,65535
1778033637.959659,1,31,15,65535
1778033637.959659,1,31,16,65535
1778033637.959659,1,31,17,65535
1778033637.959659,1,31,18,65535
1778033637.959659,1,31,19,65535
1778033637.959659,1,31,20,65535
1778033637.959659,1,31,21,65535
1778033637.959659,1,31,22,65535
1778033637.959659,1,31,23,65535
1778033637.959659,1,31,24,65535
1778033637.959659,1,31,25,65535
1778033637.959659,1,31,26,65535
1778033637.959659,1,31,27,65535
1778033637.959659,1,31,28,65535
1778033637.959659,1,31,29,65535
1778033637.959659,1,31,30,65535
1778033637.959659,1,31,31,65535
1778033638.060964,1,32,0,65535
1778033638.060964,1,32,1,65535
1778033638.060964,1,32,2,65535
1778033638.060964,1,32,3,65535
1778033638.060964,1,32,4,65535
1778033638.060964,1,32,5,65535
1778033638.060964,1,32,6,65535
1778033638.060964,1,32,7,65535
1778033638.060964,1,32,8,65535
1778033638.060964,1,32,9,65535
1778033638.060964,1,32,10,65535
1778033638.060964,1,32,11,65535
1778033638.060964,1,32,12,65535
1778033638.060964,1,32,13,65535
1778033638.060964,1,32,14,65535
1778033638.060964,1,32,15,65535
1778033638.060964,1,32,16,65535
1778033638.060964,1,32,17,65535
1778033638.060964,1,32,18,65535
1778033638.060964,1,32,19,65535
1778033638.060964,1,32,20,65535
1778033638.060964,1,32,21,65535
1778033638.060964,1,32,22,65535
1778033638.060964,1,32,23,65535
1778033638.060964,1,32,24,65535
1778033638.060964,1,32,25,65535
1778033638.060964,1,32,26,65535
1778033638.060964,1,32,27,65535
1778033638.060964,1,32,28,65535
1778033638.060964,1,32,29,65535
1778033638.060964,1,32,30,65535
1778033638.060964,1,32,31,65535
1778033638.1614459,1,33,0,65535
1778033638.1614459,1,33,1,65535
1778033638.1614459,1,33,2,65535
1778033638.1614459,1,33,3,65535
1778033638.1614459,1,33,4,65535
1778033638.1614459,1,33,5,65535
1778033638.1614459,1,33,6,65535
1778033638.1614459,1,33,7,65535
1778033638.1614459,1,33,8,65535
1778033638.1614459,1,33,9,65535
1778033638.1614459,1,33,10,65535
1778033638.1614459,1,33,11,65535
1778033638.1614459,1,33,12,65535
1778033638.1614459,1,33,13,65535
1778033638.1614459,1,33,14,65535
1778033638.1614459,1,33,15,65535
1778033638.1614459,1,33,16,65535
1778033638.1614459,1,33,17,65535
1778033638.1614459,1,33,18,65535
1778033638.1614459,1,33,19,65535
1778033638.1614459,1,33,20,65535
1778033638.1614459,1,33,21,65535
1778033638.1614459,1,33,22,65535
1778033638.1614459,1,33,23,65535
1778033638.1614459,1,33,24,65535
1778033638.1614459,1,33,25,65535
1778033638.1614459,1,33,26,65535
1778033638.1614459,1,33,27,65535
1778033638.1614459,1,33,28,65535
1778033638.1614459,1,33,29,65535
1778033638.1614459,1,33,30,65535
1778033638.1614459,1,33,31,65535
1778033638.364212,1,34,0,65535
1778033638.364212,1,34,1,65535
1778033638.364212,1,34,2,65535
1778033638.364212,1,34,3,65535
1778033638.364212,1,34,4,65535
1778033638.364212,1,34,5,65535
1778033638.364212,1,34,6,65535
1778033638.364212,1,34,7,65535
1778033638.364212,1,34,8,65535
1778033638.364212,1,34,9,65535
1778033638.364212,1,34,10,65535
1778033638.364212,1,34,11,65535
1778033638.364212,1,34,12,65535
1778033638.364212,1,34,13,65535
1778033638.364212,1,34,14,65535
1778033638.364212,1,34,15,65535
1778033638.364212,1,34,16,65535
1778033638.364212,1,34,17,65535
1778033638.364212,1,34,18,65535
1778033638.364212,1,34,19,65535
1778033638.364212,1,34,20,65535
1778033638.364212,1,34,21,65535
1778033638.364212,1,34,22,65535
1778033638.364212,1,34,23,65535
1778033638.364212,1,34,24,65535
1778033638.364212,1,34,25,65535
1778033638.364212,1,34,26,65535
1778033638.364212,1,34,27,65535
1778033638.364212,1,34,28,65535
1778033638.364212,1,34,29,65535
1778033638.364212,1,34,30,65535
1778033638.364212,1,34,31,65535
1778033638.466177,1,35,0,65535
1778033638.466177,1,35,1,65535
1778033638.466177,1,35,2,65535
1778033638.466177,1,35,3,65535
1778033638.466177,1,35,4,65535
1778033638.466177,1,35,5,65535
1778033638.466177,1,35,6,65535
1778033638.466177,1,35,7,65535
1778033638.466177,1,35,8,65535
1778033638.466177,1,35,9,65535
1778033638.466177,1,35,10,65535
1778033638.466177,1,35,11,65535
1778033638.466177,1,35,12,65535
1778033638.466177,1,35,13,65535
1778033638.466177,1,35,14,65535
1778033638.466177,1,35,15,65535
1778033638.466177,1,35,16,65535
1778033638.466177,1,35,17,65535
1778033638.466177,1,35,18,65535
1778033638.466177,1,35,19,65535
1778033638.466177,1,35,20,65535
1778033638.466177,1,35,21,65535
1778033638.466177,1,35,22,65535
1778033638.466177,1,35,23,65535
1778033638.466177,1,35,24,65535
1778033638.466177,1,35,25,65535
1778033638.466177,1,35,26,65535
1778033638.466177,1,35,27,65535
1778033638.466177,1,35,28,65535
1778033638.466177,1,35,29,65535
1778033638.466177,1,35,30,65535
1778033638.466177,1,35,31,65535
1778033638.5669608,1,36,0,65535
1778033638.5669608,1,36,1,65535
1778033638.5669608,1,36,2,65535
1778033638.5669608,1,36,3,65535
1778033638.5669608,1,36,4,65535
1778033638.5669608,1,36,5,65535
1778033638.5669608,1,36,6,65535
1778033638.5669608,1,36,7,65535
1778033638.5669608,1,36,8,65535
1778033638.5669608,1,36,9,65535
1778033638.5669608,1,36,10,65535
1778033638.5669608,1,36,11,65535
1778033638.5669608,1,36,12,65535
1778033638.5669608,1,36,13,65535
1778033638.5669608,1,36,14,65535
1778033638.5669608,1,36,15,65535
1778033638.5669608,1,36,16,65535
1778033638.5669608,1,36,17,65535
1778033638.5669608,1,36,18,65535
1778033638.5669608,1,36,19,65535
1778033638.5669608,1,36,20,65535
1778033638.5669608,1,36,21,65535
1778033638.5669608,1,36,22,65535
1778033638.5669608,1,36,23,65535
1778033638.5669608,1,36,24,65535
1778033638.5669608,1,36,25,65535
1778033638.5669608,1,36,26,65535
1778033638.5669608,1,36,27,65535
1778033638.5669608,1,36,28,65535
1778033638.5669608,1,36,29,65535
1778033638.5669608,1,36,30,65535
1778033638.5669608,1,36,31,65535
1778033638.769805,1,37,0,65535
1778033638.769805,1,37,1,65535
1778033638.769805,1,37,2,65535
1778033638.769805,1,37,3,65535
1778033638.769805,1,37,4,65535
1778033638.769805,1,37,5,65535
1778033638.769805,1,37,6,65535
1778033638.769805,1,37,7,65535
1778033638.769805,1,37,8,65535
1778033638.769805,1,37,9,65535
1778033638.769805,1,37,10,65535
1778033638.769805,1,37,11,65535
1778033638.769805,1,37,12,65535
1778033638.769805,1,37,13,65535
1778033638.769805,1,37,14,65535
1778033638.769805,1,37,15,65535
1778033638.769805,1,37,16,65535
1778033638.769805,1,37,17,65535
1778033638.769805,1,37,18,65535
1778033638.769805,1,37,19,65535
1778033638.769805,1,37,20,65535
1778033638.769805,1,37,21,65535
1778033638.769805,1,37,22,65535
1778033638.769805,1,37,23,65535
1778033638.769805,1,37,24,65535
1778033638.769805,1,37,25,65535
1778033638.769805,1,37,26,65535
1778033638.769805,1,37,27,65535
1778033638.769805,1,37,28,65535
1778033638.769805,1,37,29,65535
1778033638.769805,1,37,30,65535
1778033638.769805,1,37,31,65535
1778033638.870919,1,38,0,65535
1778033638.870919,1,38,1,65535
1778033638.870919,1,38,2,65535
1778033638.870919,1,38,3,65535
1778033638.870919,1,38,4,65535
1778033638.870919,1,38,5,65535
1778033638.870919,1,38,6,65535
1778033638.870919,1,38,7,65535
1778033638.870919,1,38,8,65535
1778033638.870919,1,38,9,65535
1778033638.870919,1,38,10,65535
1778033638.870919,1,38,11,65535
1778033638.870919,1,38,12,65535
1778033638.870919,1,38,13,65535
1778033638.870919,1,38,14,65535
1778033638.870919,1,38,15,65535
1778033638.870919,1,38,16,65535
1778033638.870919,1,38,17,65535
1778033638.870919,1,38,18,65535
1778033638.870919,1,38,19,65535
1778033638.870919,1,38,20,65535
1778033638.870919,1,38,21,65535
1778033638.870919,1,38,22,65535
1778033638.870919,1,38,23,65535
1778033638.870919,1,38,24,65535
1778033638.870919,1,38,25,65535
1778033638.870919,1,38,26,65535
1778033638.870919,1,38,27,65535
1778033638.870919,1,38,28,65535
1778033638.870919,1,38,29,65535
1778033638.870919,1,38,30,65535
1778033638.870919,1,38,31,65535
1778033638.9727201,1,39,0,65535
1778033638.9727201,1,39,1,65535
1778033638.9727201,1,39,2,65535
1778033638.9727201,1,39,3,65535
1778033638.9727201,1,39,4,65535
1778033638.9727201,1,39,5,65535
1778033638.9727201,1,39,6,65535
1778033638.9727201,1,39,7,65535
1778033638.9727201,1,39,8,65535
1778033638.9727201,1,39,9,65535
1778033638.9727201,1,39,10,65535
1778033638.9727201,1,39,11,65535
1778033638.9727201,1,39,12,65535
1778033638.9727201,1,39,13,65535
1778033638.9727201,1,39,14,65535
1778033638.9727201,1,39,15,65535
1778033638.9727201,1,39,16,65535
1778033638.9727201,1,39,17,65535
1778033638.9727201,1,39,18,65535
1778033638.9727201,1,39,19,65535
1778033638.9727201,1,39,20,65535
1778033638.9727201,1,39,21,65535
1778033638.9727201,1,39,22,65535
1778033638.9727201,1,39,23,65535
1778033638.9727201,1,39,24,65535
1778033638.9727201,1,39,25,65535
1778033638.9727201,1,39,26,65535
1778033638.9727201,1,39,27,65535
1778033638.9727201,1,39,28,65535
1778033638.9727201,1,39,29,65535
1778033638.9727201,1,39,30,65535
1778033638.9727201,1,39,31,65535
1778033639.074516,1,40,0,65535
1778033639.074516,1,40,1,65535
1778033639.074516,1,40,2,65535
1778033639.074516,1,40,3,65535
1778033639.074516,1,40,4,65535
1778033639.074516,1,40,5,65535
1778033639.074516,1,40,6,65535
1778033639.074516,1,40,7,65535
1778033639.074516,1,40,8,65535
1778033639.074516,1,40,9,65535
1778033639.074516,1,40,10,65535
1778033639.074516,1,40,11,65535
1778033639.074516,1,40,12,65535
1778033639.074516,1,40,13,65535
1778033639.074516,1,40,14,65535
1778033639.074516,1,40,15,65535
1778033639.074516,1,40,16,65535
1778033639.074516,1,40,17,65535
1778033639.074516,1,40,18,65535
1778033639.074516,1,40,19,65535
1778033639.074516,1,40,20,65535
1778033639.074516,1,40,21,65535
1778033639.074516,1,40,22,65535
1778033639.074516,1,40,23,65535
1778033639.074516,1,40,24,65535
1778033639.074516,1,40,25,65535
1778033639.074516,1,40,26,65535
1778033639.074516,1,40,27,65535
1778033639.074516,1,40,28,65535
1778033639.074516,1,40,29,65535
1778033639.074516,1,40,30,65535
1778033639.074516,1,40,31,65535
1778033639.277353,1,41,0,65535
1778033639.277353,1,41,1,65535
1778033639.277353,1,41,2,65535
1778033639.277353,1,41,3,65535
1778033639.277353,1,41,4,65535
1778033639.277353,1,41,5,65535
1778033639.277353,1,41,6,65535
1778033639.277353,1,41,7,65535
1778033639.277353,1,41,8,65535
1778033639.277353,1,41,9,65535
1778033639.277353,1,41,10,65535
1778033639.277353,1,41,11,65535
1778033639.277353,1,41,12,65535
1778033639.277353,1,41,13,65535
1778033639.277353,1,41,14,65535
1778033639.277353,1,41,15,65535
1778033639.277353,1,41,16,65535
1778033639.277353,1,41,17,65535
1778033639.277353,1,41,18,65535
1778033639.277353,1,41,19,65535
1778033639.277353,1,41,20,65535
1778033639.277353,1,41,21,65535
1778033639.277353,1,41,22,65535
1778033639.277353,1,41,23,65535
1778033639.277353,1,41,24,65535
1778033639.277353,1,41,25,65535
1778033639.277353,1,41,26,65535
1778033639.277353,1,41,27,65535
1778033639.277353,1,41,28,65535
1778033639.277353,1,41,29,65535
1778033639.277353,1,41,30,65535
1778033639.277353,1,41,31,65535
1778033639.378166,1,42,0,65535
1778033639.378166,1,42,1,65535
1778033639.378166,1,42,2,65535
1778033639.378166,1,42,3,65535
1778033639.378166,1,42,4,65535
1778033639.378166,1,42,5,65535
1778033639.378166,1,42,6,65535
1778033639.378166,1,42,7,65535
1778033639.378166,1,42,8,65535
1778033639.378166,1,42,9,65535
1778033639.378166,1,42,10,65535
1778033639.378166,1,42,11,65535
1778033639.378166,1,42,12,65535
1778033639.378166,1,42,13,65535
1778033639.378166,1,42,14,65535
1778033639.378166,1,42,15,65535
1778033639.378166,1,42,16,65535
1778033639.378166,1,42,17,65535
1778033639.378166,1,42,18,65535
1778033639.378166,1,42,19,65535
1778033639.378166,1,42,20,65535
1778033639.378166,1,42,21,65535
1778033639.378166,1,42,22,65535
1778033639.378166,1,42,23,65535
1778033639.378166,1,42,24,65535
1778033639.378166,1,42,25,65535
1778033639.378166,1,42,26,65535
1778033639.378166,1,42,27,65535
1778033639.378166,1,42,28,65535
1778033639.378166,1,42,29,65535
1778033639.378166,1,42,30,65535
1778033639.378166,1,42,31,65535
1778033639.480041,1,43,0,65535
1778033639.480041,1,43,1,65535
1778033639.480041,1,43,2,65535
1778033639.480041,1,43,3,65535
1778033639.480041,1,43,4,65535
1778033639.480041,1,43,5,65535
1778033639.480041,1,43,6,65535
1778033639.480041,1,43,7,65535
1778033639.480041,1,43,8,65535
1778033639.480041,1,43,9,65535
1778033639.480041,1,43,10,65535
1778033639.480041,1,43,11,65535
1778033639.480041,1,43,12,65535
1778033639.480041,1,43,13,65535
1778033639.480041,1,43,14,65535
1778033639.480041,1,43,15,65535
1778033639.480041,1,43,16,65535
1778033639.480041,1,43,17,65535
1778033639.480041,1,43,18,65535
1778033639.480041,1,43,19,65535
1778033639.480041,1,43,20,65535
1778033639.480041,1,43,21,65535
1778033639.480041,1,43,22,65535
1778033639.480041,1,43,23,65535
1778033639.480041,1,43,24,65535
1778033639.480041,1,43,25,65535
1778033639.480041,1,43,26,65535
1778033639.480041,1,43,27,65535
1778033639.480041,1,43,28,65535
1778033639.480041,1,43,29,65535
1778033639.480041,1,43,30,65535
1778033639.480041,1,43,31,65535
1778033639.580719,1,44,0,65535
1778033639.580719,1,44,1,65535
1778033639.580719,1,44,2,65535
1778033639.580719,1,44,3,65535
1778033639.580719,1,44,4,65535
1778033639.580719,1,44,5,65535
1778033639.580719,1,44,6,65535
1778033639.580719,1,44,7,65535
1778033639.580719,1,44,8,65535
1778033639.580719,1,44,9,65535
1778033639.580719,1,44,10,65535
1778033639.580719,1,44,11,65535
1778033639.580719,1,44,12,65535
1778033639.580719,1,44,13,65535
1778033639.580719,1,44,14,65535
1778033639.580719,1,44,15,65535
1778033639.580719,1,44,16,65535
1778033639.580719,1,44,17,65535
1778033639.580719,1,44,18,65535
1778033639.580719,1,44,19,65535
1778033639.580719,1,44,20,65535
1778033639.580719,1,44,21,65535
1778033639.580719,1,44,22,65535
1778033639.580719,1,44,23,65535
1778033639.580719,1,44,24,65535
1778033639.580719,1,44,25,65535
1778033639.580719,1,44,26,65535
1778033639.580719,1,44,27,65535
1778033639.580719,1,44,28,65535
1778033639.580719,1,44,29,65535
1778033639.580719,1,44,30,65535
1778033639.580719,1,44,31,65535
1778033639.7826939,1,45,0,65535
1778033639.7826939,1,45,1,65535
1778033639.7826939,1,45,2,65535
1778033639.7826939,1,45,3,65535
1778033639.7826939,1,45,4,65535
1778033639.7826939,1,45,5,65535
1778033639.7826939,1,45,6,65535
1778033639.7826939,1,45,7,65535
1778033639.7826939,1,45,8,65535
1778033639.7826939,1,45,9,65535
1778033639.7826939,1,45,10,65535
1778033639.7826939,1,45,11,65535
1778033639.7826939,1,45,12,65535
1778033639.7826939,1,45,13,65535
1778033639.7826939,1,45,14,65535
1778033639.7826939,1,45,15,65535
1778033639.7826939,1,45,16,65535
1778033639.7826939,1,45,17,65535
1778033639.7826939,1,45,18,65535
1778033639.7826939,1,45,19,65535
1778033639.7826939,1,45,20,65535
1778033639.7826939,1,45,21,65535
1778033639.7826939,1,45,22,65535
1778033639.7826939,1,45,23,65535
1778033639.7826939,1,45,24,65535
1778033639.7826939,1,45,25,65535
1778033639.7826939,1,45,26,65535
1778033639.7826939,1,45,27,65535
1778033639.7826939,1,45,28,65535
1778033639.7826939,1,45,29,65535
1778033639.7826939,1,45,30,65535
1778033639.7826939,1,45,31,65535
1778033639.8844821,1,46,0,65535
1778033639.8844821,1,46,1,65535
1778033639.8844821,1,46,2,65535
1778033639.8844821,1,46,3,65535
1778033639.8844821,1,46,4,65535
1778033639.8844821,1,46,5,65535
1778033639.8844821,1,46,6,65535
1778033639.8844821,1,46,7,65535
1778033639.8844821,1,46,8,65535
1778033639.8844821,1,46,9,65535
1778033639.8844821,1,46,10,65535
1778033639.8844821,1,46,11,65535
1778033639.8844821,1,46,12,65535
1778033639.8844821,1,46,13,65535
1778033639.8844821,1,46,14,65535
1778033639.8844821,1,46,15,65535
1778033639.8844821,1,46,16,65535
1778033639.8844821,1,46,17,65535
1778033639.8844821,1,46,18,65535
1778033639.8844821,1,46,19,65535
1778033639.8844821,1,46,20,65535
1778033639.8844821,1,46,21,65535
1778033639.8844821,1,46,22,65535
1778033639.8844821,1,46,23,65535
1778033639.8844821,1,46,24,65535
1778033639.8844821,1,46,25,65535
1778033639.8844821,1,46,26,65535
1778033639.8844821,1,46,27,65535
1778033639.8844821,1,46,28,65535
1778033639.8844821,1,46,29,65535
1778033639.8844821,1,46,30,65535
1778033639.8844821,1,46,31,65535
1778033639.985953,1,47,0,65535
1778033639.985953,1,47,1,65535
1778033639.985953,1,47,2,65535
1778033639.985953,1,47,3,65535
1778033639.985953,1,47,4,65535
1778033639.985953,1,47,5,65535
1778033639.985953,1,47,6,65535
1778033639.985953,1,47,7,65535
1778033639.985953,1,47,8,65535
1778033639.985953,1,47,9,65535
1778033639.985953,1,47,10,65535
1778033639.985953,1,47,11,65535
1778033639.985953,1,47,12,65535
1778033639.985953,1,47,13,65535
1778033639.985953,1,47,14,65535
1778033639.985953,1,47,15,65535
1778033639.985953,1,47,16,65535
1778033639.985953,1,47,17,65535
1778033639.985953,1,47,18,65535
1778033639.985953,1,47,19,65535
1778033639.985953,1,47,20,65535
1778033639.985953,1,47,21,65535
1778033639.985953,1,47,22,65535
1778033639.985953,1,47,23,65535
1778033639.985953,1,47,24,65535
1778033639.985953,1,47,25,65535
1778033639.985953,1,47,26,65535
1778033639.985953,1,47,27,65535
1778033639.985953,1,47,28,65535
1778033639.985953,1,47,29,65535
1778033639.985953,1,47,30,65535
1778033639.985953,1,47,31,65535
1778033640.087144,1,48,0,65535
1778033640.087144,1,48,1,65535
1778033640.087144,1,48,2,65535
1778033640.087144,1,48,3,65535
1778033640.087144,1,48,4,65535
1778033640.087144,1,48,5,65535
1778033640.087144,1,48,6,65535
1778033640.087144,1,48,7,65535
1778033640.087144,1,48,8,65535
1778033640.087144,1,48,9,65535
1778033640.087144,1,48,10,65535
1778033640.087144,1,48,11,65535
1778033640.087144,1,48,12,65535
1778033640.087144,1,48,13,65535
1778033640.087144,1,48,14,65535
1778033640.087144,1,48,15,65535
1778033640.087144,1,48,16,65535
1778033640.087144,1,48,17,65535
1778033640.087144,1,48,18,65535
1778033640.087144,1,48,19,65535
1778033640.087144,1,48,20,65535
1778033640.087144,1,48,21,65535
1778033640.087144,1,48,22,65535
1778033640.087144,1,48,23,65535
1778033640.087144,1,48,24,65535
1778033640.087144,1,48,25,65535
1778033640.087144,1,48,26,65535
1778033640.087144,1,48,27,65535
1778033640.087144,1,48,28,65535
1778033640.087144,1,48,29,65535
1778033640.087144,1,48,30,65535
1778033640.087144,1,48,31,65535
1778033640.290134,1,49,0,65535
1778033640.290134,1,49,1,65535
1778033640.290134,1,49,2,65535
1778033640.290134,1,49,3,65535
1778033640.290134,1,49,4,65535
1778033640.290134,1,49,5,65535
1778033640.290134,1,49,6,65535
1778033640.290134,1,49,7,65535
1778033640.290134,1,49,8,65535
1778033640.290134,1,49,9,65535
1778033640.290134,1,49,10,65535
1778033640.290134,1,49,11,65535
1778033640.290134,1,49,12,65535
1778033640.290134,1,49,13,65535
1778033640.290134,1,49,14,65535
1778033640.290134,1,49,15,65535
1778033640.290134,1,49,16,65535
1778033640.290134,1,49,17,65535
1778033640.290134,1,49,18,65535
1778033640.290134,1,49,19,65535
1778033640.290134,1,49,20,65535
1778033640.290134,1,49,21,65535
1778033640.290134,1,49,22,65535
1778033640.290134,1,49,23,65535
1778033640.290134,1,49,24,65535
1778033640.290134,1,49,25,65535
1778033640.290134,1,49,26,65535
1778033640.290134,1,49,27,65535
1778033640.290134,1,49,28,65535
1778033640.290134,1,49,29,65535
1778033640.290134,1,49,30,65535
1778033640.290134,1,49,31,65535
1778033640.3918562,1,50,0,65535
1778033640.3918562,1,50,1,65535
1778033640.3918562,1,50,2,65535
1778033640.3918562,1,50,3,65535
1778033640.3918562,1,50,4,65535
1778033640.3918562,1,50,5,65535
1778033640.3918562,1,50,6,65535
1778033640.3918562,1,50,7,65535
1778033640.3918562,1,50,8,65535
1778033640.3918562,1,50,9,65535
1778033640.3918562,1,50,10,65535
1778033640.3918562,1,50,11,65535
1778033640.3918562,1,50,12,65535
1778033640.3918562,1,50,13,65535
1778033640.3918562,1,50,14,65535
1778033640.3918562,1,50,15,65535
1778033640.3918562,1,50,16,65535
1778033640.3918562,1,50,17,65535
1778033640.3918562,1,50,18,65535
1778033640.3918562,1,50,19,65535
1778033640.3918562,1,50,20,65535
1778033640.3918562,1,50,21,65535
1778033640.3918562,1,50,22,65535
1778033640.3918562,1,50,23,65535
1778033640.3918562,1,50,24,65535
1778033640.3918562,1,50,25,65535
1778033640.3918562,1,50,26,65535
1778033640.3918562,1,50,27,65535
1778033640.3918562,1,50,28,65535
1778033640.3918562,1,50,29,65535
1778033640.3918562,1,50,30,65535
1778033640.3918562,1,50,31,65535
1778033640.493392,1,51,0,65535
1778033640.493392,1,51,1,65535
1778033640.493392,1,51,2,65535
1778033640.493392,1,51,3,65535
1778033640.493392,1,51,4,65535
1778033640.493392,1,51,5,65535
1778033640.493392,1,51,6,65535
1778033640.493392,1,51,7,65535
1778033640.493392,1,51,8,65535
1778033640.493392,1,51,9,65535
1778033640.493392,1,51,10,65535
1778033640.493392,1,51,11,65535
1778033640.493392,1,51,12,65535
1778033640.493392,1,51,13,65535
1778033640.493392,1,51,14,65535
1778033640.493392,1,51,15,65535
1778033640.493392,1,51,16,65535
1778033640.493392,1,51,17,65535
1778033640.493392,1,51,18,65535
1778033640.493392,1,51,19,65535
1778033640.493392,1,51,20,65535
1778033640.493392,1,51,21,65535
1778033640.493392,1,51,22,65535
1778033640.493392,1,51,23,65535
1778033640.493392,1,51,24,65535
1778033640.493392,1,51,25,65535
1778033640.493392,1,51,26,65535
1778033640.493392,1,51,27,65535
1778033640.493392,1,51,28,65535
1778033640.493392,1,51,29,65535
1778033640.493392,1,51,30,65535
1778033640.493392,1,51,31,65535
1778033640.594858,1,52,0,65535
1778033640.594858,1,52,1,65535
1778033640.594858,1,52,2,65535
1778033640.594858,1,52,3,65535
1778033640.594858,1,52,4,65535
1778033640.594858,1,52,5,65535
1778033640.594858,1,52,6,65535
1778033640.594858,1,52,7,65535
1778033640.594858,1,52,8,65535
1778033640.594858,1,52,9,65535
1778033640.594858,1,52,10,65535
1778033640.594858,1,52,11,65535
1778033640.594858,1,52,12,65535
1778033640.594858,1,52,13,65535
1778033640.594858,1,52,14,65535
1778033640.594858,1,52,15,65535
1778033640.594858,1,52,16,65535
1778033640.594858,1,52,17,65535
1778033640.594858,1,52,18,65535
1778033640.594858,1,52,19,65535
1778033640.594858,1,52,20,65535
1778033640.594858,1,52,21,65535
1778033640.594858,1,52,22,65535
1778033640.594858,1,52,23,65535
1778033640.594858,1,52,24,65535
1778033640.594858,1,52,25,65535
1778033640.594858,1,52,26,65535
1778033640.594858,1,52,27,65535
1778033640.594858,1,52,28,65535
1778033640.594858,1,52,29,65535
1778033640.594858,1,52,30,65535
1778033640.594858,1,52,31,65535
1778033640.7976892,1,53,0,65535
1778033640.7976892,1,53,1,65535
1778033640.7976892,1,53,2,65535
1778033640.7976892,1,53,3,65535
1778033640.7976892,1,53,4,65535
1778033640.7976892,1,53,5,65535
1778033640.7976892,1,53,6,65535
1778033640.7976892,1,53,7,65535
1778033640.7976892,1,53,8,65535
1778033640.7976892,1,53,9,65535
1778033640.7976892,1,53,10,65535
1778033640.7976892,1,53,11,65535
1778033640.7976892,1,53,12,65535
1778033640.7976892,1,53,13,65535
1778033640.7976892,1,53,14,65535
1778033640.7976892,1,53,15,65535
1778033640.7976892,1,53,16,65535
1778033640.7976892,1,53,17,65535
1778033640.7976892,1,53,18,65535
1778033640.7976892,1,53,19,65535
1778033640.7976892,1,53,20,65535
1778033640.7976892,1,53,21,65535
1778033640.7976892,1,53,22,65535
1778033640.7976892,1,53,23,65535
1778033640.7976892,1,53,24,65535
1778033640.7976892,1,53,25,65535
1778033640.7976892,1,53,26,65535
1778033640.7976892,1,53,27,65535
1778033640.7976892,1,53,28,65535
1778033640.7976892,1,53,29,65535
1778033640.7976892,1,53,30,65535
1778033640.7976892,1,53,31,65535
1778033640.899478,1,54,0,65535
1778033640.899478,1,54,1,65535
1778033640.899478,1,54,2,65535
1778033640.899478,1,54,3,65535
1778033640.899478,1,54,4,65535
1778033640.899478,1,54,5,65535
1778033640.899478,1,54,6,65535
1778033640.899478,1,54,7,65535
1778033640.899478,1,54,8,65535
1778033640.899478,1,54,9,65535
1778033640.899478,1,54,10,65535
1778033640.899478,1,54,11,65535
1778033640.899478,1,54,12,65535
1778033640.899478,1,54,13,65535
1778033640.899478,1,54,14,65535
1778033640.899478,1,54,15,65535
1778033640.899478,1,54,16,65535
1778033640.899478,1,54,17,65535
1778033640.899478,1,54,18,65535
1778033640.899478,1,54,19,65535
1778033640.899478,1,54,20,65535
1778033640.899478,1,54,21,65535
1778033640.899478,1,54,22,65535
1778033640.899478,1,54,23,65535
1778033640.899478,1,54,24,65535
1778033640.899478,1,54,25,65535
1778033640.899478,1,54,26,65535
1778033640.899478,1,54,27,65535
1778033640.899478,1,54,28,65535
1778033640.899478,1,54,29,65535
1778033640.899478,1,54,30,65535
1778033640.899478,1,54,31,65535
1778033641.000911,1,55,0,65535
1778033641.000911,1,55,1,65535
1778033641.000911,1,55,2,65535
1778033641.000911,1,55,3,65535
1778033641.000911,1,55,4,65535
1778033641.000911,1,55,5,65535
1778033641.000911,1,55,6,65535
1778033641.000911,1,55,7,65535
1778033641.000911,1,55,8,65535
1778033641.000911,1,55,9,65535
1778033641.000911,1,55,10,65535
1778033641.000911,1,55,11,65535
1778033641.000911,1,55,12,65535
1778033641.000911,1,55,13,65535
1778033641.000911,1,55,14,65535
1778033641.000911,1,55,15,65535
1778033641.000911,1,55,16,65535
1778033641.000911,1,55,17,65535
1778033641.000911,1,55,18,65535
1778033641.000911,1,55,19,65535
1778033641.000911,1,55,20,65535
1778033641.000911,1,55,21,65535
1778033641.000911,1,55,22,65535
1778033641.000911,1,55,23,65535
1778033641.000911,1,55,24,65535
1778033641.000911,1,55,25,65535
1778033641.000911,1,55,26,65535
1778033641.000911,1,55,27,65535
1778033641.000911,1,55,28,65535
1778033641.000911,1,55,29,65535
1778033641.000911,1,55,30,65535
1778033641.000911,1,55,31,65535
1778033641.101459,1,56,0,65535
1778033641.101459,1,56,1,65535
1778033641.101459,1,56,2,65535
1778033641.101459,1,56,3,65535
1778033641.101459,1,56,4,65535
1778033641.101459,1,56,5,65535
1778033641.101459,1,56,6,65535
1778033641.101459,1,56,7,65535
1778033641.101459,1,56,8,65535
1778033641.101459,1,56,9,65535
1778033641.101459,1,56,10,65535
1778033641.101459,1,56,11,65535
1778033641.101459,1,56,12,65535
1778033641.101459,1,56,13,65535
1778033641.101459,1,56,14,65535
1778033641.101459,1,56,15,65535
1778033641.101459,1,56,16,65535
1778033641.101459,1,56,17,65535
1778033641.101459,1,56,18,65535
1778033641.101459,1,56,19,65535
1778033641.101459,1,56,20,65535
1778033641.101459,1,56,21,65535
1778033641.101459,1,56,22,65535
1778033641.101459,1,56,23,65535
1778033641.101459,1,56,24,65535
1778033641.101459,1,56,25,65535
1778033641.101459,1,56,26,65535
1778033641.101459,1,56,27,65535
1778033641.101459,1,56,28,65535
1778033641.101459,1,56,29,65535
1778033641.101459,1,56,30,65535
1778033641.101459,1,56,31,65535
1778033641.304333,1,57,0,65535
1778033641.304333,1,57,1,65535
1778033641.304333,1,57,2,65535
1778033641.304333,1,57,3,65535
1778033641.304333,1,57,4,65535
1778033641.304333,1,57,5,65535
1778033641.304333,1,57,6,65535
1778033641.304333,1,57,7,65535
1778033641.304333,1,57,8,65535
1778033641.304333,1,57,9,65535
1778033641.304333,1,57,10,65535
1778033641.304333,1,57,11,65535
1778033641.304333,1,57,12,65535
1778033641.304333,1,57,13,65535
1778033641.304333,1,57,14,65535
1778033641.304333,1,57,15,65535
1778033641.304333,1,57,16,65535
1778033641.304333,1,57,17,65535
1778033641.304333,1,57,18,65535
1778033641.304333,1,57,19,65535
1778033641.304333,1,57,20,65535
1778033641.304333,1,57,21,65535
1778033641.304333,1,57,22,65535
1778033641.304333,1,57,23,65535
1778033641.304333,1,57,24,65535
1778033641.304333,1,57,25,65535
1778033641.304333,1,57,26,65535
1778033641.304333,1,57,27,65535
1778033641.304333,1,57,28,65535
1778033641.304333,1,57,29,65535
1778033641.304333,1,57,30,65535
1778033641.304333,1,57,31,65535
1778033641.406184,1,58,0,65535
1778033641.406184,1,58,1,65535
1778033641.406184,1,58,2,65535
1778033641.406184,1,58,3,65535
1778033641.406184,1,58,4,65535
1778033641.406184,1,58,5,65535
1778033641.406184,1,58,6,65535
1778033641.406184,1,58,7,65535
1778033641.406184,1,58,8,65535
1778033641.406184,1,58,9,65535
1778033641.406184,1,58,10,65535
1778033641.406184,1,58,11,65535
1778033641.406184,1,58,12,65535
1778033641.406184,1,58,13,65535
1778033641.406184,1,58,14,65535
1778033641.406184,1,58,15,65535
1778033641.406184,1,58,16,65535
1778033641.406184,1,58,17,65535
1778033641.406184,1,58,18,65535
1778033641.406184,1,58,19,65535
1778033641.406184,1,58,20,65535
1778033641.406184,1,58,21,65535
1778033641.406184,1,58,22,65535
1778033641.406184,1,58,23,65535
1778033641.406184,1,58,24,65535
1778033641.406184,1,58,25,65535
1778033641.406184,1,58,26,65535
1778033641.406184,1,58,27,65535
1778033641.406184,1,58,28,65535
1778033641.406184,1,58,29,65535
1778033641.406184,1,58,30,65535
1778033641.406184,1,58,31,65535
1778033641.507699,1,59,0,65535
1778033641.507699,1,59,1,65535
1778033641.507699,1,59,2,65535
1778033641.507699,1,59,3,65535
1778033641.507699,1,59,4,65535
1778033641.507699,1,59,5,65535
1778033641.507699,1,59,6,65535
1778033641.507699,1,59,7,65535
1778033641.507699,1,59,8,65535
1778033641.507699,1,59,9,65535
1778033641.507699,1,59,10,65535
1778033641.507699,1,59,11,65535
1778033641.507699,1,59,12,65535
1778033641.507699,1,59,13,65535
1778033641.507699,1,59,14,65535
1778033641.507699,1,59,15,65535
1778033641.507699,1,59,16,65535
1778033641.507699,1,59,17,65535
1778033641.507699,1,59,18,65535
1778033641.507699,1,59,19,65535
1778033641.507699,1,59,20,65535
1778033641.507699,1,59,21,65535
1778033641.507699,1,59,22,65535
1778033641.507699,1,59,23,65535
1778033641.507699,1,59,24,65535
1778033641.507699,1,59,25,65535
1778033641.507699,1,59,26,65535
1778033641.507699,1,59,27,65535
1778033641.507699,1,59,28,65535
1778033641.507699,1,59,29,65535
1778033641.507699,1,59,30,65535
1778033641.507699,1,59,31,65535
1778033641.7105548,1,60,0,65535
1778033641.7105548,1,60,1,65535
1778033641.7105548,1,60,2,65535
1778033641.7105548,1,60,3,65535
1778033641.7105548,1,60,4,65535
1778033641.7105548,1,60,5,65535
1778033641.7105548,1,60,6,65535
1778033641.7105548,1,60,7,65535
1778033641.7105548,1,60,8,65535
1778033641.7105548,1,60,9,65535
1778033641.7105548,1,60,10,65535
1778033641.7105548,1,60,11,65535
1778033641.7105548,1,60,12,65535
1778033641.7105548,1,60,13,65535
1778033641.7105548,1,60,14,65535
1778033641.7105548,1,60,15,65535
1778033641.7105548,1,60,16,65535
1778033641.7105548,1,60,17,65535
1778033641.7105548,1,60,18,65535
1778033641.7105548,1,60,19,65535
1778033641.7105548,1,60,20,65535
1778033641.7105548,1,60,21,65535
1778033641.7105548,1,60,22,65535
1778033641.7105548,1,60,23,65535
1778033641.7105548,1,60,24,65535
1778033641.7105548,1,60,25,65535
1778033641.7105548,1,60,26,65535
1778033641.7105548,1,60,27,65535
1778033641.7105548,1,60,28,65535
1778033641.7105548,1,60,29,65535
1778033641.7105548,1,60,30,65535
1778033641.7105548,1,60,31,65535
1778033641.81148,1,61,0,65535
1778033641.81148,1,61,1,65535
1778033641.81148,1,61,2,65535
1778033641.81148,1,61,3,65535
1778033641.81148,1,61,4,65535
1778033641.81148,1,61,5,65535
1778033641.81148,1,61,6,65535
1778033641.81148,1,61,7,65535
1778033641.81148,1,61,8,65535
1778033641.81148,1,61,9,65535
1778033641.81148,1,61,10,65535
1778033641.81148,1,61,11,65535
1778033641.81148,1,61,12,65535
1778033641.81148,1,61,13,65535
1778033641.81148,1,61,14,65535
1778033641.81148,1,61,15,65535
1778033641.81148,1,61,16,65535
1778033641.81148,1,61,17,65535
1778033641.81148,1,61,18,65535
1778033641.81148,1,61,19,65535
1778033641.81148,1,61,20,65535
1778033641.81148,1,61,21,65535
1778033641.81148,1,61,22,65535
1778033641.81148,1,61,23,65535
1778033641.81148,1,61,24,65535
1778033641.81148,1,61,25,65535
1778033641.81148,1,61,26,65535
1778033641.81148,1,61,27,65535
1778033641.81148,1,61,28,65535
1778033641.81148,1,61,29,65535
1778033641.81148,1,61,30,65535
1778033641.81148,1,61,31,65535
1778033641.913204,1,62,0,65535
1778033641.913204,1,62,1,65535
1778033641.913204,1,62,2,65535
1778033641.913204,1,62,3,65535
1778033641.913204,1,62,4,65535
1778033641.913204,1,62,5,65535
1778033641.913204,1,62,6,65535
1778033641.913204,1,62,7,65535
1778033641.913204,1,62,8,65535
1778033641.913204,1,62,9,65535
1778033641.913204,1,62,10,65535
1778033641.913204,1,62,11,65535
1778033641.913204,1,62,12,65535
1778033641.913204,1,62,13,65535
1778033641.913204,1,62,14,65535
1778033641.913204,1,62,15,65535
1778033641.913204,1,62,16,65535
1778033641.913204,1,62,17,65535
1778033641.913204,1,62,18,65535
1778033641.913204,1,62,19,65535
1778033641.913204,1,62,20,65535
1778033641.913204,1,62,21,65535
1778033641.913204,1,62,22,65535
1778033641.913204,1,62,23,65535
1778033641.913204,1,62,24,65535
1778033641.913204,1,62,25,65535
1778033641.913204,1,62,26,65535
1778033641.913204,1,62,27,65535
1778033641.913204,1,62,28,65535
1778033641.913204,1,62,29,65535
1778033641.913204,1,62,30,65535
1778033641.913204,1,62,31,65535
1778033642.0146408,1,63,0,65535
1778033642.0146408,1,63,1,65535
1778033642.0146408,1,63,2,65535
1778033642.0146408,1,63,3,65535
1778033642.0146408,1,63,4,65535
1778033642.0146408,1,63,5,65535
1778033642.0146408,1,63,6,65535
1778033642.0146408,1,63,7,65535
1778033642.0146408,1,63,8,65535
1778033642.0146408,1,63,9,65535
1778033642.0146408,1,63,10,65535
1778033642.0146408,1,63,11,65535
1778033642.0146408,1,63,12,65535
1778033642.0146408,1,63,13,65535
1778033642.0146408,1,63,14,65535
1778033642.0146408,1,63,15,65535
1778033642.0146408,1,63,16,65535
1778033642.0146408,1,63,17,65535
1778033642.0146408,1,63,18,65535
1778033642.0146408,1,63,19,65535
1778033642.0146408,1,63,20,65535
1778033642.0146408,1,63,21,65535
1778033642.0146408,1,63,22,65535
1778033642.0146408,1,63,23,65535
1778033642.0146408,1,63,24,65535
1778033642.0146408,1,63,25,65535
1778033642.0146408,1,63,26,65535
1778033642.0146408,1,63,27,65535
1778033642.0146408,1,63,28,65535
1778033642.0146408,1,63,29,65535
1778033642.0146408,1,63,30,65535
1778033642.0146408,1,63,31,65535
1778033642.217477,1,64,0,65535
1778033642.217477,1,64,1,65535
1778033642.217477,1,64,2,65535
1778033642.217477,1,64,3,65535
1778033642.217477,1,64,4,65535
1778033642.217477,1,64,5,65535
1778033642.217477,1,64,6,65535
1778033642.217477,1,64,7,65535
1778033642.217477,1,64,8,65535
1778033642.217477,1,64,9,65535
1778033642.217477,1,64,10,65535
1778033642.217477,1,64,11,65535
1778033642.217477,1,64,12,65535
1778033642.217477,1,64,13,65535
1778033642.217477,1,64,14,65535
1778033642.217477,1,64,15,65535
1778033642.217477,1,64,16,65535
1778033642.217477,1,64,17,65535
1778033642.217477,1,64,18,65535
1778033642.217477,1,64,19,65535
1778033642.217477,1,64,20,65535
1778033642.217477,1,64,21,65535
1778033642.217477,1,64,22,65535
1778033642.217477,1,64,23,65535
1778033642.217477,1,64,24,65535
1778033642.217477,1,64,25,65535
1778033642.217477,1,64,26,65535
1778033642.217477,1,64,27,65535
1778033642.217477,1,64,28,65535
1778033642.217477,1,64,29,65535
1778033642.217477,1,64,30,65535
1778033642.217477,1,64,31,65535
1778033642.3189938,1,65,0,65535
1778033642.3189938,1,65,1,65535
1778033642.3189938,1,65,2,65535
1778033642.3189938,1,65,3,65535
1778033642.3189938,1,65,4,65535
1778033642.3189938,1,65,5,65535
1778033642.3189938,1,65,6,65535
1778033642.3189938,1,65,7,65535
1778033642.3189938,1,65,8,65535
1778033642.3189938,1,65,9,65535
1778033642.3189938,1,65,10,65535
1778033642.3189938,1,65,11,65535
1778033642.3189938,1,65,12,65535
1778033642.3189938,1,65,13,65535
1778033642.3189938,1,65,14,65535
1778033642.3189938,1,65,15,65535
1778033642.3189938,1,65,16,65535
1778033642.3189938,1,65,17,65535
1778033642.3189938,1,65,18,65535
1778033642.3189938,1,65,19,65535
1778033642.3189938,1,65,20,65535
1778033642.3189938,1,65,21,65535
1778033642.3189938,1,65,22,65535
1778033642.3189938,1,65,23,65535
1778033642.3189938,1,65,24,65535
1778033642.3189938,1,65,25,65535
1778033642.3189938,1,65,26,65535
1778033642.3189938,1,65,27,65535
1778033642.3189938,1,65,28,65535
1778033642.3189938,1,65,29,65535
1778033642.3189938,1,65,30,65535
1778033642.3189938,1,65,31,65535
1778033642.4204428,1,66,0,65535
1778033642.4204428,1,66,1,65535
1778033642.4204428,1,66,2,65535
1778033642.4204428,1,66,3,65535
1778033642.4204428,1,66,4,65535
1778033642.4204428,1,66,5,65535
1778033642.4204428,1,66,6,65535
1778033642.4204428,1,66,7,65535
1778033642.4204428,1,66,8,65535
1778033642.4204428,1,66,9,65535
1778033642.4204428,1,66,10,65535
1778033642.4204428,1,66,11,65535
1778033642.4204428,1,66,12,65535
1778033642.4204428,1,66,13,65535
1778033642.4204428,1,66,14,65535
1778033642.4204428,1,66,15,65535
1778033642.4204428,1,66,16,65535
1778033642.4204428,1,66,17,65535
1778033642.4204428,1,66,18,65535
1778033642.4204428,1,66,19,65535
1778033642.4204428,1,66,20,65535
1778033642.4204428,1,66,21,65535
1778033642.4204428,1,66,22,65535
1778033642.4204428,1,66,23,65535
1778033642.4204428,1,66,24,65535
1778033642.4204428,1,66,25,65535
1778033642.4204428,1,66,26,65535
1778033642.4204428,1,66,27,65535
1778033642.4204428,1,66,28,65535
1778033642.4204428,1,66,29,65535
1778033642.4204428,1,66,30,65535
1778033642.4204428,1,66,31,65535
1778033642.521853,1,67,0,65535
1778033642.521853,1,67,1,65535
1778033642.521853,1,67,2,65535
1778033642.521853,1,67,3,65535
1778033642.521853,1,67,4,65535
1778033642.521853,1,67,5,65535
1778033642.521853,1,67,6,65535
1778033642.521853,1,67,7,65535
1778033642.521853,1,67,8,65535
1778033642.521853,1,67,9,65535
1778033642.521853,1,67,10,65535
1778033642.521853,1,67,11,65535
1778033642.521853,1,67,12,65535
1778033642.521853,1,67,13,65535
1778033642.521853,1,67,14,65535
1778033642.521853,1,67,15,65535
1778033642.521853,1,67,16,65535
1778033642.521853,1,67,17,65535
1778033642.521853,1,67,18,65535
1778033642.521853,1,67,19,65535
1778033642.521853,1,67,20,65535
1778033642.521853,1,67,21,65535
1778033642.521853,1,67,22,65535
1778033642.521853,1,67,23,65535
1778033642.521853,1,67,24,65535
1778033642.521853,1,67,25,65535
1778033642.521853,1,67,26,65535
1778033642.521853,1,67,27,65535
1778033642.521853,1,67,28,65535
1778033642.521853,1,67,29,65535
1778033642.521853,1,67,30,65535
1778033642.521853,1,67,31,65535
1778033642.724693,1,68,0,65535
1778033642.724693,1,68,1,65535
1778033642.724693,1,68,2,65535
1778033642.724693,1,68,3,65535
1778033642.724693,1,68,4,65535
1778033642.724693,1,68,5,65535
1778033642.724693,1,68,6,65535
1778033642.724693,1,68,7,65535
1778033642.724693,1,68,8,65535
1778033642.724693,1,68,9,65535
1778033642.724693,1,68,10,65535
1778033642.724693,1,68,11,65535
1778033642.724693,1,68,12,65535
1778033642.724693,1,68,13,65535
1778033642.724693,1,68,14,65535
1778033642.724693,1,68,15,65535
1778033642.724693,1,68,16,65535
1778033642.724693,1,68,17,65535
1778033642.724693,1,68,18,65535
1778033642.724693,1,68,19,65535
1778033642.724693,1,68,20,65535
1778033642.724693,1,68,21,65535
1778033642.724693,1,68,22,65535
1778033642.724693,1,68,23,65535
1778033642.724693,1,68,24,65535
1778033642.724693,1,68,25,65535
1778033642.724693,1,68,26,65535
1778033642.724693,1,68,27,65535
1778033642.724693,1,68,28,65535
1778033642.724693,1,68,29,65535
1778033642.724693,1,68,30,65535
1778033642.724693,1,68,31,65535
1778033642.826278,1,69,0,65535
1778033642.826278,1,69,1,65535
1778033642.826278,1,69,2,65535
1778033642.826278,1,69,3,65535
1778033642.826278,1,69,4,65535
1778033642.826278,1,69,5,65535
1778033642.826278,1,69,6,65535
1778033642.826278,1,69,7,65535
1778033642.826278,1,69,8,65535
1778033642.826278,1,69,9,65535
1778033642.826278,1,69,10,65535
1778033642.826278,1,69,11,65535
1778033642.826278,1,69,12,65535
1778033642.826278,1,69,13,65535
1778033642.826278,1,69,14,65535
1778033642.826278,1,69,15,65535
1778033642.826278,1,69,16,65535
1778033642.826278,1,69,17,65535
1778033642.826278,1,69,18,65535
1778033642.826278,1,69,19,65535
1778033642.826278,1,69,20,65535
1778033642.826278,1,69,21,65535
1778033642.826278,1,69,22,65535
1778033642.826278,1,69,23,65535
1778033642.826278,1,69,24,65535
1778033642.826278,1,69,25,65535
1778033642.826278,1,69,26,65535
1778033642.826278,1,69,27,65535
1778033642.826278,1,69,28,65535
1778033642.826278,1,69,29,65535
1778033642.826278,1,69,30,65535
1778033642.826278,1,69,31,65535
1778033642.928025,1,70,0,65535
1778033642.928025,1,70,1,65535
1778033642.928025,1,70,2,65535
1778033642.928025,1,70,3,65535
1778033642.928025,1,70,4,65535
1778033642.928025,1,70,5,65535
1778033642.928025,1,70,6,65535
1778033642.928025,1,70,7,65535
1778033642.928025,1,70,8,65535
1778033642.928025,1,70,9,65535
1778033642.928025,1,70,10,65535
1778033642.928025,1,70,11,65535
1778033642.928025,1,70,12,65535
1778033642.928025,1,70,13,65535
1778033642.928025,1,70,14,65535
1778033642.928025,1,70,15,65535
1778033642.928025,1,70,16,65535
1778033642.928025,1,70,17,65535
1778033642.928025,1,70,18,65535
1778033642.928025,1,70,19,65535
1778033642.928025,1,70,20,65535
1778033642.928025,1,70,21,65535
1778033642.928025,1,70,22,65535
1778033642.928025,1,70,23,65535
1778033642.928025,1,70,24,65535
1778033642.928025,1,70,25,65535
1778033642.928025,1,70,26,65535
1778033642.928025,1,70,27,65535
1778033642.928025,1,70,28,65535
1778033642.928025,1,70,29,65535
1778033642.928025,1,70,30,65535
1778033642.928025,1,70,31,65535
1778033643.0294669,1,71,0,65535
1778033643.0294669,1,71,1,65535
1778033643.0294669,1,71,2,65535
1778033643.0294669,1,71,3,65535
1778033643.0294669,1,71,4,65535
1778033643.0294669,1,71,5,65535
1778033643.0294669,1,71,6,65535
1778033643.0294669,1,71,7,65535
1778033643.0294669,1,71,8,65535
1778033643.0294669,1,71,9,65535
1778033643.0294669,1,71,10,65535
1778033643.0294669,1,71,11,65535
1778033643.0294669,1,71,12,65535
1778033643.0294669,1,71,13,65535
1778033643.0294669,1,71,14,65535
1778033643.0294669,1,71,15,65535
1778033643.0294669,1,71,16,65535
1778033643.0294669,1,71,17,65535
1778033643.0294669,1,71,18,65535
1778033643.0294669,1,71,19,65535
1778033643.0294669,1,71,20,65535
1778033643.0294669,1,71,21,65535
1778033643.0294669,1,71,22,65535
1778033643.0294669,1,71,23,65535
1778033643.0294669,1,71,24,65535
1778033643.0294669,1,71,25,65535
1778033643.0294669,1,71,26,65535
1778033643.0294669,1,71,27,65535
1778033643.0294669,1,71,28,65535
1778033643.0294669,1,71,29,65535
1778033643.0294669,1,71,30,65535
1778033643.0294669,1,71,31,65535
1778033643.232215,1,72,0,65535
1778033643.232215,1,72,1,65535
1778033643.232215,1,72,2,65535
1778033643.232215,1,72,3,65535
1778033643.232215,1,72,4,65535
1778033643.232215,1,72,5,65535
1778033643.232215,1,72,6,65535
1778033643.232215,1,72,7,65535
1778033643.232215,1,72,8,65535
1778033643.232215,1,72,9,65535
1778033643.232215,1,72,10,65535
1778033643.232215,1,72,11,65535
1778033643.232215,1,72,12,65535
1778033643.232215,1,72,13,65535
1778033643.232215,1,72,14,65535
1778033643.232215,1,72,15,65535
1778033643.232215,1,72,16,65535
1778033643.232215,1,72,17,65535
1778033643.232215,1,72,18,65535
1778033643.232215,1,72,19,65535
1778033643.232215,1,72,20,65535
1778033643.232215,1,72,21,65535
1778033643.232215,1,72,22,65535
1778033643.232215,1,72,23,65535
1778033643.232215,1,72,24,65535
1778033643.232215,1,72,25,65535
1778033643.232215,1,72,26,65535
1778033643.232215,1,72,27,65535
1778033643.232215,1,72,28,65535
1778033643.232215,1,72,29,65535
1778033643.232215,1,72,30,65535
1778033643.232215,1,72,31,65535
1778033643.3338099,1,73,0,65535
1778033643.3338099,1,73,1,65535
1778033643.3338099,1,73,2,65535
1778033643.3338099,1,73,3,65535
1778033643.3338099,1,73,4,65535
1778033643.3338099,1,73,5,65535
1778033643.3338099,1,73,6,65535
1778033643.3338099,1,73,7,65535
1778033643.3338099,1,73,8,65535
1778033643.3338099,1,73,9,65535
1778033643.3338099,1,73,10,65535
1778033643.3338099,1,73,11,65535
1778033643.3338099,1,73,12,65535
1778033643.3338099,1,73,13,65535
1778033643.3338099,1,73,14,65535
1778033643.3338099,1,73,15,65535
1778033643.3338099,1,73,16,65535
1778033643.3338099,1,73,17,65535
1778033643.3338099,1,73,18,65535
1778033643.3338099,1,73,19,65535
1778033643.3338099,1,73,20,65535
1778033643.3338099,1,73,21,65535
1778033643.3338099,1,73,22,65535
1778033643.3338099,1,73,23,65535
1778033643.3338099,1,73,24,65535
1778033643.3338099,1,73,25,65535
1778033643.3338099,1,73,26,65535
1778033643.3338099,1,73,27,65535
1778033643.3338099,1,73,28,65535
1778033643.3338099,1,73,29,65535
1778033643.3338099,1,73,30,65535
1778033643.3338099,1,73,31,65535
1778033643.4356039,1,74,0,65535
1778033643.4356039,1,74,1,65535
1778033643.4356039,1,74,2,65535
1778033643.4356039,1,74,3,65535
1778033643.4356039,1,74,4,65535
1778033643.4356039,1,74,5,65535
1778033643.4356039,1,74,6,65535
1778033643.4356039,1,74,7,65535
1778033643.4356039,1,74,8,65535
1778033643.4356039,1,74,9,65535
1778033643.4356039,1,74,10,65535
1778033643.4356039,1,74,11,65535
1778033643.4356039,1,74,12,65535
1778033643.4356039,1,74,13,65535
1778033643.4356039,1,74,14,65535
1778033643.4356039,1,74,15,65535
1778033643.4356039,1,74,16,65535
1778033643.4356039,1,74,17,65535
1778033643.4356039,1,74,18,65535
1778033643.4356039,1,74,19,65535
1778033643.4356039,1,74,20,65535
1778033643.4356039,1,74,21,65535
1778033643.4356039,1,74,22,65535
1778033643.4356039,1,74,23,65535
1778033643.4356039,1,74,24,65535
1778033643.4356039,1,74,25,65535
1778033643.4356039,1,74,26,65535
1778033643.4356039,1,74,27,65535
1778033643.4356039,1,74,28,65535
1778033643.4356039,1,74,29,65535
1778033643.4356039,1,74,30,65535
1778033643.4356039,1,74,31,65535
1778033643.5371048,1,75,0,65535
1778033643.5371048,1,75,1,65535
1778033643.5371048,1,75,2,65535
1778033643.5371048,1,75,3,65535
1778033643.5371048,1,75,4,65535
1778033643.5371048,1,75,5,65535
1778033643.5371048,1,75,6,65535
1778033643.5371048,1,75,7,65535
1778033643.5371048,1,75,8,65535
1778033643.5371048,1,75,9,65535
1778033643.5371048,1,75,10,65535
1778033643.5371048,1,75,11,65535
1778033643.5371048,1,75,12,65535
1778033643.5371048,1,75,13,65535
1778033643.5371048,1,75,14,65535
1778033643.5371048,1,75,15,65535
1778033643.5371048,1,75,16,65535
1778033643.5371048,1,75,17,65535
1778033643.5371048,1,75,18,65535
1778033643.5371048,1,75,19,65535
1778033643.5371048,1,75,20,65535
1778033643.5371048,1,75,21,65535
1778033643.5371048,1,75,22,65535
1778033643.5371048,1,75,23,65535
1778033643.5371048,1,75,24,65535
1778033643.5371048,1,75,25,65535
1778033643.5371048,1,75,26,65535
1778033643.5371048,1,75,27,65535
1778033643.5371048,1,75,28,65535
1778033643.5371048,1,75,29,65535
1778033643.5371048,1,75,30,65535
1778033643.5371048,1,75,31,65535
1778033643.738276,1,76,0,65535
1778033643.738276,1,76,1,65535
1778033643.738276,1,76,2,65535
1778033643.738276,1,76,3,65535
1778033643.738276,1,76,4,65535
1778033643.738276,1,76,5,65535
1778033643.738276,1,76,6,65535
1778033643.738276,1,76,7,65535
1778033643.738276,1,76,8,65535
1778033643.738276,1,76,9,65535
1778033643.738276,1,76,10,65535
1778033643.738276,1,76,11,65535
1778033643.738276,1,76,12,65535
1778033643.738276,1,76,13,65535
1778033643.738276,1,76,14,65535
1778033643.738276,1,76,15,65535
1778033643.738276,1,76,16,65535
1778033643.738276,1,76,17,65535
1778033643.738276,1,76,18,65535
1778033643.738276,1,76,19,65535
1778033643.738276,1,76,20,65535
1778033643.738276,1,76,21,65535
1778033643.738276,1,76,22,65535
1778033643.738276,1,76,23,65535
1778033643.738276,1,76,24,65535
1778033643.738276,1,76,25,65535
1778033643.738276,1,76,26,65535
1778033643.738276,1,76,27,65535
1778033643.738276,1,76,28,65535
1778033643.738276,1,76,29,65535
1778033643.738276,1,76,30,65535
1778033643.738276,1,76,31,65535
1778033643.839822,1,77,0,65535
1778033643.839822,1,77,1,65535
1778033643.839822,1,77,2,65535
1778033643.839822,1,77,3,65535
1778033643.839822,1,77,4,65535
1778033643.839822,1,77,5,65535
1778033643.839822,1,77,6,65535
1778033643.839822,1,77,7,65535
1778033643.839822,1,77,8,65535
1778033643.839822,1,77,9,65535
1778033643.839822,1,77,10,65535
1778033643.839822,1,77,11,65535
1778033643.839822,1,77,12,65535
1778033643.839822,1,77,13,65535
1778033643.839822,1,77,14,65535
1778033643.839822,1,77,15,65535
1778033643.839822,1,77,16,65535
1778033643.839822,1,77,17,65535
1778033643.839822,1,77,18,65535
1778033643.839822,1,77,19,65535
1778033643.839822,1,77,20,65535
1778033643.839822,1,77,21,65535
1778033643.839822,1,77,22,65535
1778033643.839822,1,77,23,65535
1778033643.839822,1,77,24,65535
1778033643.839822,1,77,25,65535
1778033643.839822,1,77,26,65535
1778033643.839822,1,77,27,65535
1778033643.839822,1,77,28,65535
1778033643.839822,1,77,29,65535
1778033643.839822,1,77,30,65535
1778033643.839822,1,77,31,65535
1778033643.941563,1,78,0,65535
1778033643.941563,1,78,1,65535
1778033643.941563,1,78,2,65535
1778033643.941563,1,78,3,65535
1778033643.941563,1,78,4,65535
1778033643.941563,1,78,5,65535
1778033643.941563,1,78,6,65535
1778033643.941563,1,78,7,65535
1778033643.941563,1,78,8,65535
1778033643.941563,1,78,9,65535
1778033643.941563,1,78,10,65535
1778033643.941563,1,78,11,65535
1778033643.941563,1,78,12,65535
1778033643.941563,1,78,13,65535
1778033643.941563,1,78,14,65535
1778033643.941563,1,78,15,65535
1778033643.941563,1,78,16,65535
1778033643.941563,1,78,17,65535
1778033643.941563,1,78,18,65535
1778033643.941563,1,78,19,65535
1778033643.941563,1,78,20,65535
1778033643.941563,1,78,21,65535
1778033643.941563,1,78,22,65535
1778033643.941563,1,78,23,65535
1778033643.941563,1,78,24,65535
1778033643.941563,1,78,25,65535
1778033643.941563,1,78,26,65535
1778033643.941563,1,78,27,65535
1778033643.941563,1,78,28,65535
1778033643.941563,1,78,29,65535
1778033643.941563,1,78,30,65535
1778033643.941563,1,78,31,65535
1778033644.1444101,1,79,0,65535
1778033644.1444101,1,79,1,65535
1778033644.1444101,1,79,2,65535
1778033644.1444101,1,79,3,65535
1778033644.1444101,1,79,4,65535
1778033644.1444101,1,79,5,65535
1778033644.1444101,1,79,6,65535
1778033644.1444101,1,79,7,65535
1778033644.1444101,1,79,8,65535
1778033644.1444101,1,79,9,65535
1778033644.1444101,1,79,10,65535
1778033644.1444101,1,79,11,65535
1778033644.1444101,1,79,12,65535
1778033644.1444101,1,79,13,65535
1778033644.1444101,1,79,14,65535
1778033644.1444101,1,79,15,65535
1778033644.1444101,1,79,16,65535
1778033644.1444101,1,79,17,65535
1778033644.1444101,1,79,18,65535
1778033644.1444101,1,79,19,65535
1778033644.1444101,1,79,20,65535
1778033644.1444101,1,79,21,65535
1778033644.1444101,1,79,22,65535
1778033644.1444101,1,79,23,65535
1778033644.1444101,1,79,24,65535
1778033644.1444101,1,79,25,65535
1778033644.1444101,1,79,26,65535
1778033644.1444101,1,79,27,65535
1778033644.1444101,1,79,28,65535
1778033644.1444101,1,79,29,65535
1778033644.1444101,1,79,30,65535
1778033644.1444101,1,79,31,65535
1778033644.2459571,1,80,0,65535
1778033644.2459571,1,80,1,65535
1778033644.2459571,1,80,2,65535
1778033644.2459571,1,80,3,65535
1778033644.2459571,1,80,4,65535
1778033644.2459571,1,80,5,65535
1778033644.2459571,1,80,6,65535
1778033644.2459571,1,80,7,65535
1778033644.2459571,1,80,8,65535
1778033644.2459571,1,80,9,65535
1778033644.2459571,1,80,10,65535
1778033644.2459571,1,80,11,65535
1778033644.2459571,1,80,12,65535
1778033644.2459571,1,80,13,65535
1778033644.2459571,1,80,14,65535
1778033644.2459571,1,80,15,65535
1778033644.2459571,1,80,16,65535
1778033644.2459571,1,80,17,65535
1778033644.2459571,1,80,18,65535
1778033644.2459571,1,80,19,65535
1778033644.2459571,1,80,20,65535
1778033644.2459571,1,80,21,65535
1778033644.2459571,1,80,22,65535
1778033644.2459571,1,80,23,65535
1778033644.2459571,1,80,24,65535
1778033644.2459571,1,80,25,65535
1778033644.2459571,1,80,26,65535
1778033644.2459571,1,80,27,65535
1778033644.2459571,1,80,28,65535
1778033644.2459571,1,80,29,65535
1778033644.2459571,1,80,30,65535
1778033644.2459571,1,80,31,65535
1778033644.347094,1,81,0,65535
1778033644.347094,1,81,1,65535
1778033644.347094,1,81,2,65535
1778033644.347094,1,81,3,65535
1778033644.347094,1,81,4,65535
1778033644.347094,1,81,5,65535
1778033644.347094,1,81,6,65535
1778033644.347094,1,81,7,65535
1778033644.347094,1,81,8,65535
1778033644.347094,1,81,9,65535
1778033644.347094,1,81,10,65535
1778033644.347094,1,81,11,65535
1778033644.347094,1,81,12,65535
1778033644.347094,1,81,13,65535
1778033644.347094,1,81,14,65535
1778033644.347094,1,81,15,65535
1778033644.347094,1,81,16,65535
1778033644.347094,1,81,17,65535
1778033644.347094,1,81,18,65535
1778033644.347094,1,81,19,65535
1778033644.347094,1,81,20,65535
1778033644.347094,1,81,21,65535
1778033644.347094,1,81,22,65535
1778033644.347094,1,81,23,65535
1778033644.347094,1,81,24,65535
1778033644.347094,1,81,25,65535
1778033644.347094,1,81,26,65535
1778033644.347094,1,81,27,65535
1778033644.347094,1,81,28,65535
1778033644.347094,1,81,29,65535
1778033644.347094,1,81,30,65535
1778033644.347094,1,81,31,65535
1778033644.448787,1,82,0,65535
1778033644.448787,1,82,1,65535
1778033644.448787,1,82,2,65535
1778033644.448787,1,82,3,65535
1778033644.448787,1,82,4,65535
1778033644.448787,1,82,5,65535
1778033644.448787,1,82,6,65535
1778033644.448787,1,82,7,65535
1778033644.448787,1,82,8,65535
1778033644.448787,1,82,9,65535
1778033644.448787,1,82,10,65535
1778033644.448787,1,82,11,65535
1778033644.448787,1,82,12,65535
1778033644.448787,1,82,13,65535
1778033644.448787,1,82,14,65535
1778033644.448787,1,82,15,65535
1778033644.448787,1,82,16,65535
1778033644.448787,1,82,17,65535
1778033644.448787,1,82,18,65535
1778033644.448787,1,82,19,65535
1778033644.448787,1,82,20,65535
1778033644.448787,1,82,21,65535
1778033644.448787,1,82,22,65535
1778033644.448787,1,82,23,65535
1778033644.448787,1,82,24,65535
1778033644.448787,1,82,25,65535
1778033644.448787,1,82,26,65535
1778033644.448787,1,82,27,65535
1778033644.448787,1,82,28,65535
1778033644.448787,1,82,29,65535
1778033644.448787,1,82,30,65535
1778033644.448787,1,82,31,65535
1778033644.6511512,1,83,0,65535
1778033644.6511512,1,83,1,65535
1778033644.6511512,1,83,2,65535
1778033644.6511512,1,83,3,65535
1778033644.6511512,1,83,4,65535
1778033644.6511512,1,83,5,65535
1778033644.6511512,1,83,6,65535
1778033644.6511512,1,83,7,65535
1778033644.6511512,1,83,8,65535
1778033644.6511512,1,83,9,65535
1778033644.6511512,1,83,10,65535
1778033644.6511512,1,83,11,65535
1778033644.6511512,1,83,12,65535
1778033644.6511512,1,83,13,65535
1778033644.6511512,1,83,14,65535
1778033644.6511512,1,83,15,65535
1778033644.6511512,1,83,16,65535
1778033644.6511512,1,83,17,65535
1778033644.6511512,1,83,18,65535
1778033644.6511512,1,83,19,65535
1778033644.6511512,1,83,20,65535
1778033644.6511512,1,83,21,65535
1778033644.6511512,1,83,22,65535
1778033644.6511512,1,83,23,65535
1778033644.6511512,1,83,24,65535
1778033644.6511512,1,83,25,65535
1778033644.6511512,1,83,26,65535
1778033644.6511512,1,83,27,65535
1778033644.6511512,1,83,28,65535
1778033644.6511512,1,83,29,65535
1778033644.6511512,1,83,30,65535
1778033644.6511512,1,83,31,65535
1778033644.752788,1,84,0,65535
1778033644.752788,1,84,1,65535
1778033644.752788,1,84,2,65535
1778033644.752788,1,84,3,65535
1778033644.752788,1,84,4,65535
1778033644.752788,1,84,5,65535
1778033644.752788,1,84,6,65535
1778033644.752788,1,84,7,65535
1778033644.752788,1,84,8,65535
1778033644.752788,1,84,9,65535
1778033644.752788,1,84,10,65535
1778033644.752788,1,84,11,65535
1778033644.752788,1,84,12,65535
1778033644.752788,1,84,13,65535
1778033644.752788,1,84,14,65535
1778033644.752788,1,84,15,65535
1778033644.752788,1,84,16,65535
1778033644.752788,1,84,17,65535
1778033644.752788,1,84,18,65535
1778033644.752788,1,84,19,65535
1778033644.752788,1,84,20,65535
1778033644.752788,1,84,21,65535
1778033644.752788,1,84,22,65535
1778033644.752788,1,84,23,65535
1778033644.752788,1,84,24,65535
1778033644.752788,1,84,25,65535
1778033644.752788,1,84,26,65535
1778033644.752788,1,84,27,65535
1778033644.752788,1,84,28,65535
1778033644.752788,1,84,29,65535
1778033644.752788,1,84,30,65535
1778033644.752788,1,84,31,65535
1778033644.853974,1,85,0,65535
1778033644.853974,1,85,1,65535
1778033644.853974,1,85,2,65535
1778033644.853974,1,85,3,65535
1778033644.853974,1,85,4,65535
1778033644.853974,1,85,5,65535
1778033644.853974,1,85,6,65535
1778033644.853974,1,85,7,65535
1778033644.853974,1,85,8,65535
1778033644.853974,1,85,9,65535
1778033644.853974,1,85,10,65535
1778033644.853974,1,85,11,65535
1778033644.853974,1,85,12,65535
1778033644.853974,1,85,13,65535
1778033644.853974,1,85,14,65535
1778033644.853974,1,85,15,65535
1778033644.853974,1,85,16,65535
1778033644.853974,1,85,17,65535
1778033644.853974,1,85,18,65535
1778033644.853974,1,85,19,65535
1778033644.853974,1,85,20,65535
1778033644.853974,1,85,21,65535
1778033644.853974,1,85,22,65535
1778033644.853974,1,85,23,65535
1778033644.853974,1,85,24,65535
1778033644.853974,1,85,25,65535
1778033644.853974,1,85,26,65535
1778033644.853974,1,85,27,65535
1778033644.853974,1,85,28,65535
1778033644.853974,1,85,29,65535
1778033644.853974,1,85,30,65535
1778033644.853974,1,85,31,65535
1778033644.955505,1,86,0,65535
1778033644.955505,1,86,1,65535
1778033644.955505,1,86,2,65535
1778033644.955505,1,86,3,65535
1778033644.955505,1,86,4,65535
1778033644.955505,1,86,5,65535
1778033644.955505,1,86,6,65535
1778033644.955505,1,86,7,65535
1778033644.955505,1,86,8,65535
1778033644.955505,1,86,9,65535
1778033644.955505,1,86,10,65535
1778033644.955505,1,86,11,65535
1778033644.955505,1,86,12,65535
1778033644.955505,1,86,13,65535
1778033644.955505,1,86,14,65535
1778033644.955505,1,86,15,65535
1778033644.955505,1,86,16,65535
1778033644.955505,1,86,17,65535
1778033644.955505,1,86,18,65535
1778033644.955505,1,86,19,65535
1778033644.955505,1,86,20,65535
1778033644.955505,1,86,21,65535
1778033644.955505,1,86,22,65535
1778033644.955505,1,86,23,65535
1778033644.955505,1,86,24,65535
1778033644.955505,1,86,25,65535
1778033644.955505,1,86,26,65535
1778033644.955505,1,86,27,65535
1778033644.955505,1,86,28,65535
1778033644.955505,1,86,29,65535
1778033644.955505,1,86,30,65535
1778033644.955505,1,86,31,65535
1778033645.0708501,1,87,0,65535
1778033645.0708501,1,87,1,65535
1778033645.0708501,1,87,2,65535
1778033645.0708501,1,87,3,65535
1778033645.0708501,1,87,4,65535
1778033645.0708501,1,87,5,65535
1778033645.0708501,1,87,6,65535
1778033645.0708501,1,87,7,65535
1778033645.0708501,1,87,8,65535
1778033645.0708501,1,87,9,65535
1778033645.0708501,1,87,10,65535
1778033645.0708501,1,87,11,65535
1778033645.0708501,1,87,12,65535
1778033645.0708501,1,87,13,65535
1778033645.0708501,1,87,14,65535
1778033645.0708501,1,87,15,65535
1778033645.0708501,1,87,16,65535
1778033645.0708501,1,87,17,65535
1778033645.0708501,1,87,18,65535
1778033645.0708501,1,87,19,65535
1778033645.0708501,1,87,20,65535
1778033645.0708501,1,87,21,65535
1778033645.0708501,1,87,22,65535
1778033645.0708501,1,87,23,65535
1778033645.0708501,1,87,24,65535
1778033645.0708501,1,87,25,65535
1778033645.0708501,1,87,26,65535
1778033645.0708501,1,87,27,65535
1778033645.0708501,1,87,28,65535
1778033645.0708501,1,87,29,65535
1778033645.0708501,1,87,30,65535
1778033645.0708501,1,87,31,65535
1778033645.272827,1,88,0,65535
1778033645.272827,1,88,1,65535
1778033645.272827,1,88,2,65535
1778033645.272827,1,88,3,65535
1778033645.272827,1,88,4,65535
1778033645.272827,1,88,5,65535
1778033645.272827,1,88,6,65535
1778033645.272827,1,88,7,65535
1778033645.272827,1,88,8,65535
1778033645.272827,1,88,9,65535
1778033645.272827,1,88,10,65535
1778033645.272827,1,88,11,65535
1778033645.272827,1,88,12,65535
1778033645.272827,1,88,13,65535
1778033645.272827,1,88,14,65535
1778033645.272827,1,88,15,65535
1778033645.272827,1,88,16,65535
1778033645.272827,1,88,17,65535
1778033645.272827,1,88,18,65535
1778033645.272827,1,88,19,65535
1778033645.272827,1,88,20,65535
1778033645.272827,1,88,21,65535
1778033645.272827,1,88,22,65535
1778033645.272827,1,88,23,65535
1778033645.272827,1,88,24,65535
1778033645.272827,1,88,25,65535
1778033645.272827,1,88,26,65535
1778033645.272827,1,88,27,65535
1778033645.272827,1,88,28,65535
1778033645.272827,1,88,29,65535
1778033645.272827,1,88,30,65535
1778033645.272827,1,88,31,65535
1778033645.373603,1,89,0,65535
1778033645.373603,1,89,1,65535
1778033645.373603,1,89,2,65535
1778033645.373603,1,89,3,65535
1778033645.373603,1,89,4,65535
1778033645.373603,1,89,5,65535
1778033645.373603,1,89,6,65535
1778033645.373603,1,89,7,65535
1778033645.373603,1,89,8,65535
1778033645.373603,1,89,9,65535
1778033645.373603,1,89,10,65535
1778033645.373603,1,89,11,65535
1778033645.373603,1,89,12,65535
1778033645.373603,1,89,13,65535
1778033645.373603,1,89,14,65535
1778033645.373603,1,89,15,65535
1778033645.373603,1,89,16,65535
1778033645.373603,1,89,17,65535
1778033645.373603,1,89,18,65535
1778033645.373603,1,89,19,65535
1778033645.373603,1,89,20,65535
1778033645.373603,1,89,21,65535
1778033645.373603,1,89,22,65535
1778033645.373603,1,89,23,65535
1778033645.373603,1,89,24,65535
1778033645.373603,1,89,25,65535
1778033645.373603,1,89,26,65535
1778033645.373603,1,89,27,65535
1778033645.373603,1,89,28,65535
1778033645.373603,1,89,29,65535
1778033645.373603,1,89,30,65535
1778033645.373603,1,89,31,65535
1778033645.475052,1,90,0,65535
1778033645.475052,1,90,1,65535
1778033645.475052,1,90,2,65535
1778033645.475052,1,90,3,65535
1778033645.475052,1,90,4,65535
1778033645.475052,1,90,5,65535
1778033645.475052,1,90,6,65535
1778033645.475052,1,90,7,65535
1778033645.475052,1,90,8,65535
1778033645.475052,1,90,9,65535
1778033645.475052,1,90,10,65535
1778033645.475052,1,90,11,65535
1778033645.475052,1,90,12,65535
1778033645.475052,1,90,13,65535
1778033645.475052,1,90,14,65535
1778033645.475052,1,90,15,65535
1778033645.475052,1,90,16,65535
1778033645.475052,1,90,17,65535
1778033645.475052,1,90,18,65535
1778033645.475052,1,90,19,65535
1778033645.475052,1,90,20,65535
1778033645.475052,1,90,21,65535
1778033645.475052,1,90,22,65535
1778033645.475052,1,90,23,65535
1778033645.475052,1,90,24,65535
1778033645.475052,1,90,25,65535
1778033645.475052,1,90,26,65535
1778033645.475052,1,90,27,65535
1778033645.475052,1,90,28,65535
1778033645.475052,1,90,29,65535
1778033645.475052,1,90,30,65535
1778033645.475052,1,90,31,65535
1778033645.677921,1,91,0,65535
1778033645.677921,1,91,1,65535
1778033645.677921,1,91,2,65535
1778033645.677921,1,91,3,65535
1778033645.677921,1,91,4,65535
1778033645.677921,1,91,5,65535
1778033645.677921,1,91,6,65535
1778033645.677921,1,91,7,65535
1778033645.677921,1,91,8,65535
1778033645.677921,1,91,9,65535
1778033645.677921,1,91,10,65535
1778033645.677921,1,91,11,65535
1778033645.677921,1,91,12,65535
1778033645.677921,1,91,13,65535
1778033645.677921,1,91,14,65535
1778033645.677921,1,91,15,65535
1778033645.677921,1,91,16,65535
1778033645.677921,1,91,17,65535
1778033645.677921,1,91,18,65535
1778033645.677921,1,91,19,65535
1778033645.677921,1,91,20,65535
1778033645.677921,1,91,21,65535
1778033645.677921,1,91,22,65535
1778033645.677921,1,91,23,65535
1778033645.677921,1,91,24,65535
1778033645.677921,1,91,25,65535
1778033645.677921,1,91,26,65535
1778033645.677921,1,91,27,65535
1778033645.677921,1,91,28,65535
1778033645.677921,1,91,29,65535
1778033645.677921,1,91,30,65535
1778033645.677921,1,91,31,65535
1778033645.7786171,1,92,0,65535
1778033645.7786171,1,92,1,65535
1778033645.7786171,1,92,2,65535
1778033645.7786171,1,92,3,65535
1778033645.7786171,1,92,4,65535
1778033645.7786171,1,92,5,65535
1778033645.7786171,1,92,6,65535
1778033645.7786171,1,92,7,65535
1778033645.7786171,1,92,8,65535
1778033645.7786171,1,92,9,65535
1778033645.7786171,1,92,10,65535
1778033645.7786171,1,92,11,65535
1778033645.7786171,1,92,12,65535
1778033645.7786171,1,92,13,65535
1778033645.7786171,1,92,14,65535
1778033645.7786171,1,92,15,65535
1778033645.7786171,1,92,16,65535
1778033645.7786171,1,92,17,65535
1778033645.7786171,1,92,18,65535
1778033645.7786171,1,92,19,65535
1778033645.7786171,1,92,20,65535
1778033645.7786171,1,92,21,65535
1778033645.7786171,1,92,22,65535
1778033645.7786171,1,92,23,65535
1778033645.7786171,1,92,24,65535
1778033645.7786171,1,92,25,65535
1778033645.7786171,1,92,26,65535
1778033645.7786171,1,92,27,65535
1778033645.7786171,1,92,28,65535
1778033645.7786171,1,92,29,65535
1778033645.7786171,1,92,30,65535
1778033645.7786171,1,92,31,65535
1778033645.879832,1,93,0,65535
1778033645.879832,1,93,1,65535
1778033645.879832,1,93,2,65535
1778033645.879832,1,93,3,65535
1778033645.879832,1,93,4,65535
1778033645.879832,1,93,5,65535
1778033645.879832,1,93,6,65535
1778033645.879832,1,93,7,65535
1778033645.879832,1,93,8,65535
1778033645.879832,1,93,9,65535
1778033645.879832,1,93,10,65535
1778033645.879832,1,93,11,65535
1778033645.879832,1,93,12,65535
1778033645.879832,1,93,13,65535
1778033645.879832,1,93,14,65535
1778033645.879832,1,93,15,65535
1778033645.879832,1,93,16,65535
1778033645.879832,1,93,17,65535
1778033645.879832,1,93,18,65535
1778033645.879832,1,93,19,65535
1778033645.879832,1,93,20,65535
1778033645.879832,1,93,21,65535
1778033645.879832,1,93,22,65535
1778033645.879832,1,93,23,65535
1778033645.879832,1,93,24,65535
1778033645.879832,1,93,25,65535
1778033645.879832,1,93,26,65535
1778033645.879832,1,93,27,65535
1778033645.879832,1,93,28,65535
1778033645.879832,1,93,29,65535
1778033645.879832,1,93,30,65535
1778033645.879832,1,93,31,65535
1778033645.980709,1,94,0,65535
1778033645.980709,1,94,1,65535
1778033645.980709,1,94,2,65535
1778033645.980709,1,94,3,65535
1778033645.980709,1,94,4,65535
1778033645.980709,1,94,5,65535
1778033645.980709,1,94,6,65535
1778033645.980709,1,94,7,65535
1778033645.980709,1,94,8,65535
1778033645.980709,1,94,9,65535
1778033645.980709,1,94,10,65535
1778033645.980709,1,94,11,65535
1778033645.980709,1,94,12,65535
1778033645.980709,1,94,13,65535
1778033645.980709,1,94,14,65535
1778033645.980709,1,94,15,65535
1778033645.980709,1,94,16,65535
1778033645.980709,1,94,17,65535
1778033645.980709,1,94,18,65535
1778033645.980709,1,94,19,65535
1778033645.980709,1,94,20,65535
1778033645.980709,1,94,21,65535
1778033645.980709,1,94,22,65535
1778033645.980709,1,94,23,65535
1778033645.980709,1,94,24,65535
1778033645.980709,1,94,25,65535
1778033645.980709,1,94,26,65535
1778033645.980709,1,94,27,65535
1778033645.980709,1,94,28,65535
1778033645.980709,1,94,29,65535
1778033645.980709,1,94,30,65535
1778033645.980709,1,94,31,65535
1778033646.182505,1,95,0,65535
1778033646.182505,1,95,1,65535
1778033646.182505,1,95,2,65535
1778033646.182505,1,95,3,65535
1778033646.182505,1,95,4,65535
1778033646.182505,1,95,5,65535
1778033646.182505,1,95,6,65535
1778033646.182505,1,95,7,65535
1778033646.182505,1,95,8,65535
1778033646.182505,1,95,9,65535
1778033646.182505,1,95,10,65535
1778033646.182505,1,95,11,65535
1778033646.182505,1,95,12,65535
1778033646.182505,1,95,13,65535
1778033646.182505,1,95,14,65535
1778033646.182505,1,95,15,65535
1778033646.182505,1,95,16,65535
1778033646.182505,1,95,17,65535
1778033646.182505,1,95,18,65535
1778033646.182505,1,95,19,65535
1778033646.182505,1,95,20,65535
1778033646.182505,1,95,21,65535
1778033646.182505,1,95,22,65535
1778033646.182505,1,95,23,65535
1778033646.182505,1,95,24,65535
1778033646.182505,1,95,25,65535
1778033646.182505,1,95,26,65535
1778033646.182505,1,95,27,65535
1778033646.182505,1,95,28,65535
1778033646.182505,1,95,29,65535
1778033646.182505,1,95,30,65535
1778033646.182505,1,95,31,65535
1778033646.2838862,1,96,0,65535
1778033646.2838862,1,96,1,65535
1778033646.2838862,1,96,2,65535
1778033646.2838862,1,96,3,65535
1778033646.2838862,1,96,4,65535
1778033646.2838862,1,96,5,65535
1778033646.2838862,1,96,6,65535
1778033646.2838862,1,96,7,65535
1778033646.2838862,1,96,8,65535
1778033646.2838862,1,96,9,65535
1778033646.2838862,1,96,10,65535
1778033646.2838862,1,96,11,65535
1778033646.2838862,1,96,12,65535
1778033646.2838862,1,96,13,65535
1778033646.2838862,1,96,14,65535
1778033646.2838862,1,96,15,65535
1778033646.2838862,1,96,16,65535
1778033646.2838862,1,96,17,65535
1778033646.2838862,1,96,18,65535
1778033646.2838862,1,96,19,65535
1778033646.2838862,1,96,20,65535
1778033646.2838862,1,96,21,65535
1778033646.2838862,1,96,22,65535
1778033646.2838862,1,96,23,65535
1778033646.2838862,1,96,24,65535
1778033646.2838862,1,96,25,65535
1778033646.2838862,1,96,26,65535
1778033646.2838862,1,96,27,65535
1778033646.2838862,1,96,28,65535
1778033646.2838862,1,96,29,65535
1778033646.2838862,1,96,30,65535
1778033646.2838862,1,96,31,65535
1778033646.3847659,1,97,0,65535
1778033646.3847659,1,97,1,65535
1778033646.3847659,1,97,2,65535
1778033646.3847659,1,97,3,65535
1778033646.3847659,1,97,4,65535
1778033646.3847659,1,97,5,65535
1778033646.3847659,1,97,6,65535
1778033646.3847659,1,97,7,65535
1778033646.3847659,1,97,8,65535
1778033646.3847659,1,97,9,65535
1778033646.3847659,1,97,10,65535
1778033646.3847659,1,97,11,65535
1778033646.3847659,1,97,12,65535
1778033646.3847659,1,97,13,65535
1778033646.3847659,1,97,14,65535
1778033646.3847659,1,97,15,65535
1778033646.3847659,1,97,16,65535
1778033646.3847659,1,97,17,65535
1778033646.3847659,1,97,18,65535
1778033646.3847659,1,97,19,65535
1778033646.3847659,1,97,20,65535
1778033646.3847659,1,97,21,65535
1778033646.3847659,1,97,22,65535
1778033646.3847659,1,97,23,65535
1778033646.3847659,1,97,24,65535
1778033646.3847659,1,97,25,65535
1778033646.3847659,1,97,26,65535
1778033646.3847659,1,97,27,65535
1778033646.3847659,1,97,28,65535
1778033646.3847659,1,97,29,65535
1778033646.3847659,1,97,30,65535
1778033646.3847659,1,97,31,65535
1778033646.485406,1,98,0,65535
1778033646.485406,1,98,1,65535
1778033646.485406,1,98,2,65535
1778033646.485406,1,98,3,65535
1778033646.485406,1,98,4,65535
1778033646.485406,1,98,5,65535
1778033646.485406,1,98,6,65535
1778033646.485406,1,98,7,65535
1778033646.485406,1,98,8,65535
1778033646.485406,1,98,9,65535
1778033646.485406,1,98,10,65535
1778033646.485406,1,98,11,65535
1778033646.485406,1,98,12,65535
1778033646.485406,1,98,13,65535
1778033646.485406,1,98,14,65535
1778033646.485406,1,98,15,65535
1778033646.485406,1,98,16,65535
1778033646.485406,1,98,17,65535
1778033646.485406,1,98,18,65535
1778033646.485406,1,98,19,65535
1778033646.485406,1,98,20,65535
1778033646.485406,1,98,21,65535
1778033646.485406,1,98,22,65535
1778033646.485406,1,98,23,65535
1778033646.485406,1,98,24,65535
1778033646.485406,1,98,25,65535
1778033646.485406,1,98,26,65535
1778033646.485406,1,98,27,65535
1778033646.485406,1,98,28,65535
1778033646.485406,1,98,29,65535
1778033646.485406,1,98,30,65535
1778033646.485406,1,98,31,65535
1778033646.687139,1,99,0,65535
1778033646.687139,1,99,1,65535
1778033646.687139,1,99,2,65535
1778033646.687139,1,99,3,65535
1778033646.687139,1,99,4,65535
1778033646.687139,1,99,5,65535
1778033646.687139,1,99,6,65535
1778033646.687139,1,99,7,65535
1778033646.687139,1,99,8,65535
1778033646.687139,1,99,9,65535
1778033646.687139,1,99,10,65535
1778033646.687139,1,99,11,65535
1778033646.687139,1,99,12,65535
1778033646.687139,1,99,13,65535
1778033646.687139,1,99,14,65535
1778033646.687139,1,99,15,65535
1778033646.687139,1,99,16,65535
1778033646.687139,1,99,17,65535
1778033646.687139,1,99,18,65535
1778033646.687139,1,99,19,65535
1778033646.687139,1,99,20,65535
1778033646.687139,1,99,21,65535
1778033646.687139,1,99,22,65535
1778033646.687139,1,99,23,65535
1778033646.687139,1,99,24,65535
1778033646.687139,1,99,25,65535
1778033646.687139,1,99,26,65535
1778033646.687139,1,99,27,65535
1778033646.687139,1,99,28,65535
1778033646.687139,1,99,29,65535
1778033646.687139,1,99,30,65535
1778033646.687139,1,99,31,65535
1778033646.788703,1,100,0,65535
1778033646.788703,1,100,1,65535
1778033646.788703,1,100,2,65535
1778033646.788703,1,100,3,65535
1778033646.788703,1,100,4,65535
1778033646.788703,1,100,5,65535
1778033646.788703,1,100,6,65535
1778033646.788703,1,100,7,65535
1778033646.788703,1,100,8,65535
1778033646.788703,1,100,9,65535
1778033646.788703,1,100,10,65535
1778033646.788703,1,100,11,65535
1778033646.788703,1,100,12,65535
1778033646.788703,1,100,13,65535
1778033646.788703,1,100,14,65535
1778033646.788703,1,100,15,65535
1778033646.788703,1,100,16,65535
1778033646.788703,1,100,17,65535
1778033646.788703,1,100,18,65535
1778033646.788703,1,100,19,65535
1778033646.788703,1,100,20,65535
1778033646.788703,1,100,21,65535
1778033646.788703,1,100,22,65535
1778033646.788703,1,100,23,65535
1778033646.788703,1,100,24,65535
1778033646.788703,1,100,25,65535
1778033646.788703,1,100,26,65535
1778033646.788703,1,100,27,65535
1778033646.788703,1,100,28,65535
1778033646.788703,1,100,29,65535
1778033646.788703,1,100,30,65535
1778033646.788703,1,100,31,65535
1778033646.890497,1,101,0,65535
1778033646.890497,1,101,1,65535
1778033646.890497,1,101,2,65535
1778033646.890497,1,101,3,65535
1778033646.890497,1,101,4,65535
1778033646.890497,1,101,5,65535
1778033646.890497,1,101,6,65535
1778033646.890497,1,101,7,65535
1778033646.890497,1,101,8,65535
1778033646.890497,1,101,9,65535
1778033646.890497,1,101,10,65535
1778033646.890497,1,101,11,65535
1778033646.890497,1,101,12,65535
1778033646.890497,1,101,13,65535
1778033646.890497,1,101,14,65535
1778033646.890497,1,101,15,65535
1778033646.890497,1,101,16,65535
1778033646.890497,1,101,17,65535
1778033646.890497,1,101,18,65535
1778033646.890497,1,101,19,65535
1778033646.890497,1,101,20,65535
1778033646.890497,1,101,21,65535
1778033646.890497,1,101,22,65535
1778033646.890497,1,101,23,65535
1778033646.890497,1,101,24,65535
1778033646.890497,1,101,25,65535
1778033646.890497,1,101,26,65535
1778033646.890497,1,101,27,65535
1778033646.890497,1,101,28,65535
1778033646.890497,1,101,29,65535
1778033646.890497,1,101,30,65535
1778033646.890497,1,101,31,65535
1778033646.990944,1,102,0,65535
1778033646.990944,1,102,1,65535
1778033646.990944,1,102,2,65535
1778033646.990944,1,102,3,65535
1778033646.990944,1,102,4,65535
1778033646.990944,1,102,5,65535
1778033646.990944,1,102,6,65535
1778033646.990944,1,102,7,65535
1778033646.990944,1,102,8,65535
1778033646.990944,1,102,9,65535
1778033646.990944,1,102,10,65535
1778033646.990944,1,102,11,65535
1778033646.990944,1,102,12,65535
1778033646.990944,1,102,13,65535
1778033646.990944,1,102,14,65535
1778033646.990944,1,102,15,65535
1778033646.990944,1,102,16,65535
1778033646.990944,1,102,17,65535
1778033646.990944,1,102,18,65535
1778033646.990944,1,102,19,65535
1778033646.990944,1,102,20,65535
1778033646.990944,1,102,21,65535
1778033646.990944,1,102,22,65535
1778033646.990944,1,102,23,65535
1778033646.990944,1,102,24,65535
1778033646.990944,1,102,25,65535
1778033646.990944,1,102,26,65535
1778033646.990944,1,102,27,65535
1778033646.990944,1,102,28,65535
1778033646.990944,1,102,29,65535
1778033646.990944,1,102,30,65535
1778033646.990944,1,102,31,65535
1778033647.1929758,1,103,0,65535
1778033647.1929758,1,103,1,65535
1778033647.1929758,1,103,2,65535
1778033647.1929758,1,103,3,65535
1778033647.1929758,1,103,4,65535
1778033647.1929758,1,103,5,65535
1778033647.1929758,1,103,6,65535
1778033647.1929758,1,103,7,65535
1778033647.1929758,1,103,8,65535
1778033647.1929758,1,103,9,65535
1778033647.1929758,1,103,10,65535
1778033647.1929758,1,103,11,65535
1778033647.1929758,1,103,12,65535
1778033647.1929758,1,103,13,65535
1778033647.1929758,1,103,14,65535
1778033647.1929758,1,103,15,65535
1778033647.1929758,1,103,16,65535
1778033647.1929758,1,103,17,65535
1778033647.1929758,1,103,18,65535
1778033647.1929758,1,103,19,65535
1778033647.1929758,1,103,20,65535
1778033647.1929758,1,103,21,65535
1778033647.1929758,1,103,22,65535
1778033647.1929758,1,103,23,65535
1778033647.1929758,1,103,24,65535
1778033647.1929758,1,103,25,65535
1778033647.1929758,1,103,26,65535
1778033647.1929758,1,103,27,65535
1778033647.1929758,1,103,28,65535
1778033647.1929758,1,103,29,65535
1778033647.1929758,1,103,30,65535
1778033647.1929758,1,103,31,65535
1778033647.293735,1,104,0,65535
1778033647.293735,1,104,1,65535
1778033647.293735,1,104,2,65535
1778033647.293735,1,104,3,65535
1778033647.293735,1,104,4,65535
1778033647.293735,1,104,5,65535
1778033647.293735,1,104,6,65535
1778033647.293735,1,104,7,65535
1778033647.293735,1,104,8,65535
1778033647.293735,1,104,9,65535
1778033647.293735,1,104,10,65535
1778033647.293735,1,104,11,65535
1778033647.293735,1,104,12,65535
1778033647.293735,1,104,13,65535
1778033647.293735,1,104,14,65535
1778033647.293735,1,104,15,65535
1778033647.293735,1,104,16,65535
1778033647.293735,1,104,17,65535
1778033647.293735,1,104,18,65535
1778033647.293735,1,104,19,65535
1778033647.293735,1,104,20,65535
1778033647.293735,1,104,21,65535
1778033647.293735,1,104,22,65535
1778033647.293735,1,104,23,65535
1778033647.293735,1,104,24,65535
1778033647.293735,1,104,25,65535
1778033647.293735,1,104,26,65535
1778033647.293735,1,104,27,65535
1778033647.293735,1,104,28,65535
1778033647.293735,1,104,29,65535
1778033647.293735,1,104,30,65535
1778033647.293735,1,104,31,65535
1778033647.3949718,1,105,0,65535
1778033647.3949718,1,105,1,65535
1778033647.3949718,1,105,2,65535
1778033647.3949718,1,105,3,65535
1778033647.3949718,1,105,4,65535
1778033647.3949718,1,105,5,65535
1778033647.3949718,1,105,6,65535
1778033647.3949718,1,105,7,65535
1778033647.3949718,1,105,8,65535
1778033647.3949718,1,105,9,65535
1778033647.3949718,1,105,10,65535
1778033647.3949718,1,105,11,65535
1778033647.3949718,1,105,12,65535
1778033647.3949718,1,105,13,65535
1778033647.3949718,1,105,14,65535
1778033647.3949718,1,105,15,65535
1778033647.3949718,1,105,16,65535
1778033647.3949718,1,105,17,65535
1778033647.3949718,1,105,18,65535
1778033647.3949718,1,105,19,65535
1778033647.3949718,1,105,20,65535
1778033647.3949718,1,105,21,65535
1778033647.3949718,1,105,22,65535
1778033647.3949718,1,105,23,65535
1778033647.3949718,1,105,24,65535
1778033647.3949718,1,105,25,65535
1778033647.3949718,1,105,26,65535
1778033647.3949718,1,105,27,65535
1778033647.3949718,1,105,28,65535
1778033647.3949718,1,105,29,65535
1778033647.3949718,1,105,30,65535
1778033647.3949718,1,105,31,65535
1778033647.596877,1,106,0,65535
1778033647.596877,1,106,1,65535
1778033647.596877,1,106,2,65535
1778033647.596877,1,106,3,65535
1778033647.596877,1,106,4,65535
1778033647.596877,1,106,5,65535
1778033647.596877,1,106,6,65535
1778033647.596877,1,106,7,65535
1778033647.596877,1,106,8,65535
1778033647.596877,1,106,9,65535
1778033647.596877,1,106,10,65535
1778033647.596877,1,106,11,65535
1778033647.596877,1,106,12,65535
1778033647.596877,1,106,13,65535
1778033647.596877,1,106,14,65535
1778033647.596877,1,106,15,65535
1778033647.596877,1,106,16,65535
1778033647.596877,1,106,17,65535
1778033647.596877,1,106,18,65535
1778033647.596877,1,106,19,65535
1778033647.596877,1,106,20,65535
1778033647.596877,1,106,21,65535
1778033647.596877,1,106,22,65535
1778033647.596877,1,106,23,65535
1778033647.596877,1,106,24,65535
1778033647.596877,1,106,25,65535
1778033647.596877,1,106,26,65535
1778033647.596877,1,106,27,65535
1778033647.596877,1,106,28,65535
1778033647.596877,1,106,29,65535
1778033647.596877,1,106,30,65535
1778033647.596877,1,106,31,65535
1778033647.697591,1,107,0,65535
1778033647.697591,1,107,1,65535
1778033647.697591,1,107,2,65535
1778033647.697591,1,107,3,65535
1778033647.697591,1,107,4,65535
1778033647.697591,1,107,5,65535
1778033647.697591,1,107,6,65535
1778033647.697591,1,107,7,65535
1778033647.697591,1,107,8,65535
1778033647.697591,1,107,9,65535
1778033647.697591,1,107,10,65535
1778033647.697591,1,107,11,65535
1778033647.697591,1,107,12,65535
1778033647.697591,1,107,13,65535
1778033647.697591,1,107,14,65535
1778033647.697591,1,107,15,65535
1778033647.697591,1,107,16,65535
1778033647.697591,1,107,17,65535
1778033647.697591,1,107,18,65535
1778033647.697591,1,107,19,65535
1778033647.697591,1,107,20,65535
1778033647.697591,1,107,21,65535
1778033647.697591,1,107,22,65535
1778033647.697591,1,107,23,65535
1778033647.697591,1,107,24,65535
1778033647.697591,1,107,25,65535
1778033647.697591,1,107,26,65535
1778033647.697591,1,107,27,65535
1778033647.697591,1,107,28,65535
1778033647.697591,1,107,29,65535
1778033647.697591,1,107,30,65535
1778033647.697591,1,107,31,65535
1778033647.9127738,1,108,0,65535
1778033647.9127738,1,108,1,65535
1778033647.9127738,1,108,2,65535
1778033647.9127738,1,108,3,65535
1778033647.9127738,1,108,4,65535
1778033647.9127738,1,108,5,65535
1778033647.9127738,1,108,6,65535
1778033647.9127738,1,108,7,65535
1778033647.9127738,1,108,8,65535
1778033647.9127738,1,108,9,65535
1778033647.9127738,1,108,10,65535
1778033647.9127738,1,108,11,65535
1778033647.9127738,1,108,12,65535
1778033647.9127738,1,108,13,65535
1778033647.9127738,1,108,14,65535
1778033647.9127738,1,108,15,65535
1778033647.9127738,1,108,16,65535
1778033647.9127738,1,108,17,65535
1778033647.9127738,1,108,18,65535
1778033647.9127738,1,108,19,65535
1778033647.9127738,1,108,20,65535
1778033647.9127738,1,108,21,65535
1778033647.9127738,1,108,22,65535
1778033647.9127738,1,108,23,65535
1778033647.9127738,1,108,24,65535
1778033647.9127738,1,108,25,65535
1778033647.9127738,1,108,26,65535
1778033647.9127738,1,108,27,65535
1778033647.9127738,1,108,28,65535
1778033647.9127738,1,108,29,65535
1778033647.9127738,1,108,30,65535
1778033647.9127738,1,108,31,65535
1778033647.913137,1,109,0,65535
1778033647.913137,1,109,1,65535
1778033647.913137,1,109,2,65535
1778033647.913137,1,109,3,65535
1778033647.913137,1,109,4,65535
1778033647.913137,1,109,5,65535
1778033647.913137,1,109,6,65535
1778033647.913137,1,109,7,65535
1778033647.913137,1,109,8,65535
1778033647.913137,1,109,9,65535
1778033647.913137,1,109,10,65535
1778033647.913137,1,109,11,65535
1778033647.913137,1,109,12,65535
1778033647.913137,1,109,13,65535
1778033647.913137,1,109,14,65535
1778033647.913137,1,109,15,65535
1778033647.913137,1,109,16,65535
1778033647.913137,1,109,17,65535
1778033647.913137,1,109,18,65535
1778033647.913137,1,109,19,65535
1778033647.913137,1,109,20,65535
1778033647.913137,1,109,21,65535
1778033647.913137,1,109,22,65535
1778033647.913137,1,109,23,65535
1778033647.913137,1,109,24,65535
1778033647.913137,1,109,25,65535
1778033647.913137,1,109,26,65535
1778033647.913137,1,109,27,65535
1778033647.913137,1,109,28,65535
1778033647.913137,1,109,29,65535
1778033647.913137,1,109,30,65535
1778033647.913137,1,109,31,65535
1778033648.013972,1,110,0,65535
1778033648.013972,1,110,1,65535
1778033648.013972,1,110,2,65535
1778033648.013972,1,110,3,65535
1778033648.013972,1,110,4,65535
1778033648.013972,1,110,5,65535
1778033648.013972,1,110,6,65535
1778033648.013972,1,110,7,65535
1778033648.013972,1,110,8,65535
1778033648.013972,1,110,9,65535
1778033648.013972,1,110,10,65535
1778033648.013972,1,110,11,65535
1778033648.013972,1,110,12,65535
1778033648.013972,1,110,13,65535
1778033648.013972,1,110,14,65535
1778033648.013972,1,110,15,65535
1778033648.013972,1,110,16,65535
1778033648.013972,1,110,17,65535
1778033648.013972,1,110,18,65535
1778033648.013972,1,110,19,65535
1778033648.013972,1,110,20,65535
1778033648.013972,1,110,21,65535
1778033648.013972,1,110,22,65535
1778033648.013972,1,110,23,65535
1778033648.013972,1,110,24,65535
1778033648.013972,1,110,25,65535
1778033648.013972,1,110,26,65535
1778033648.013972,1,110,27,65535
1778033648.013972,1,110,28,65535
1778033648.013972,1,110,29,65535
1778033648.013972,1,110,30,65535
1778033648.013972,1,110,31,65535
1778033648.216371,1,111,0,65535
1778033648.216371,1,111,1,65535
1778033648.216371,1,111,2,65535
1778033648.216371,1,111,3,65535
1778033648.216371,1,111,4,65535
1778033648.216371,1,111,5,65535
1778033648.216371,1,111,6,65535
1778033648.216371,1,111,7,65535
1778033648.216371,1,111,8,65535
1778033648.216371,1,111,9,65535
1778033648.216371,1,111,10,65535
1778033648.216371,1,111,11,65535
1778033648.216371,1,111,12,65535
1778033648.216371,1,111,13,65535
1778033648.216371,1,111,14,65535
1778033648.216371,1,111,15,65535
1778033648.216371,1,111,16,65535
1778033648.216371,1,111,17,65535
1778033648.216371,1,111,18,65535
1778033648.216371,1,111,19,65535
1778033648.216371,1,111,20,65535
1778033648.216371,1,111,21,65535
1778033648.216371,1,111,22,65535
1778033648.216371,1,111,23,65535
1778033648.216371,1,111,24,65535
1778033648.216371,1,111,25,65535
1778033648.216371,1,111,26,65535
1778033648.216371,1,111,27,65535
1778033648.216371,1,111,28,65535
1778033648.216371,1,111,29,65535
1778033648.216371,1,111,30,65535
1778033648.216371,1,111,31,65535
1778033648.3177001,1,112,0,65535
1778033648.3177001,1,112,1,65535
1778033648.3177001,1,112,2,65535
1778033648.3177001,1,112,3,65535
1778033648.3177001,1,112,4,65535
1778033648.3177001,1,112,5,65535
1778033648.3177001,1,112,6,65535
1778033648.3177001,1,112,7,65535
1778033648.3177001,1,112,8,65535
1778033648.3177001,1,112,9,65535
1778033648.3177001,1,112,10,65535
1778033648.3177001,1,112,11,65535
1778033648.3177001,1,112,12,65535
1778033648.3177001,1,112,13,65535
1778033648.3177001,1,112,14,65535
1778033648.3177001,1,112,15,65535
1778033648.3177001,1,112,16,65535
1778033648.3177001,1,112,17,65535
1778033648.3177001,1,112,18,65535
1778033648.3177001,1,112,19,65535
1778033648.3177001,1,112,20,65535
1778033648.3177001,1,112,21,65535
1778033648.3177001,1,112,22,65535
1778033648.3177001,1,112,23,65535
1778033648.3177001,1,112,24,65535
1778033648.3177001,1,112,25,65535
1778033648.3177001,1,112,26,65535
1778033648.3177001,1,112,27,65535
1778033648.3177001,1,112,28,65535
1778033648.3177001,1,112,29,65535
1778033648.3177001,1,112,30,65535
1778033648.3177001,1,112,31,65535
1778033648.419106,1,113,0,65535
1778033648.419106,1,113,1,65535
1778033648.419106,1,113,2,65535
1778033648.419106,1,113,3,65535
1778033648.419106,1,113,4,65535
1778033648.419106,1,113,5,65535
1778033648.419106,1,113,6,65535
1778033648.419106,1,113,7,65535
1778033648.419106,1,113,8,65535
1778033648.419106,1,113,9,65535
1778033648.419106,1,113,10,65535
1778033648.419106,1,113,11,65535
1778033648.419106,1,113,12,65535
1778033648.419106,1,113,13,65535
1778033648.419106,1,113,14,65535
1778033648.419106,1,113,15,65535
1778033648.419106,1,113,16,65535
1778033648.419106,1,113,17,65535
1778033648.419106,1,113,18,65535
1778033648.419106,1,113,19,65535
1778033648.419106,1,113,20,65535
1778033648.419106,1,113,21,65535
1778033648.419106,1,113,22,65535
1778033648.419106,1,113,23,65535
1778033648.419106,1,113,24,65535
1778033648.419106,1,113,25,65535
1778033648.419106,1,113,26,65535
1778033648.419106,1,113,27,65535
1778033648.419106,1,113,28,65535
1778033648.419106,1,113,29,65535
1778033648.419106,1,113,30,65535
1778033648.419106,1,113,31,65535
1778033648.621695,1,114,0,65535
1778033648.621695,1,114,1,65535
1778033648.621695,1,114,2,65535
1778033648.621695,1,114,3,65535
1778033648.621695,1,114,4,65535
1778033648.621695,1,114,5,65535
1778033648.621695,1,114,6,65535
1778033648.621695,1,114,7,65535
1778033648.621695,1,114,8,65535
1778033648.621695,1,114,9,65535
1778033648.621695,1,114,10,65535
1778033648.621695,1,114,11,65535
1778033648.621695,1,114,12,65535
1778033648.621695,1,114,13,65535
1778033648.621695,1,114,14,65535
1778033648.621695,1,114,15,65535
1778033648.621695,1,114,16,65535
1778033648.621695,1,114,17,65535
1778033648.621695,1,114,18,65535
1778033648.621695,1,114,19,65535
1778033648.621695,1,114,20,65535
1778033648.621695,1,114,21,65535
1778033648.621695,1,114,22,65535
1778033648.621695,1,114,23,65535
1778033648.621695,1,114,24,65535
1778033648.621695,1,114,25,65535
1778033648.621695,1,114,26,65535
1778033648.621695,1,114,27,65535
1778033648.621695,1,114,28,65535
1778033648.621695,1,114,29,65535
1778033648.621695,1,114,30,65535
1778033648.621695,1,114,31,65535
1778033648.723746,1,115,0,65535
1778033648.723746,1,115,1,65535
1778033648.723746,1,115,2,65535
1778033648.723746,1,115,3,65535
1778033648.723746,1,115,4,65535
1778033648.723746,1,115,5,65535
1778033648.723746,1,115,6,65535
1778033648.723746,1,115,7,65535
1778033648.723746,1,115,8,65535
1778033648.723746,1,115,9,65535
1778033648.723746,1,115,10,65535
1778033648.723746,1,115,11,65535
1778033648.723746,1,115,12,65535
1778033648.723746,1,115,13,65535
1778033648.723746,1,115,14,65535
1778033648.723746,1,115,15,65535
1778033648.723746,1,115,16,65535
1778033648.723746,1,115,17,65535
1778033648.723746,1,115,18,65535
1778033648.723746,1,115,19,65535
1778033648.723746,1,115,20,65535
1778033648.723746,1,115,21,65535
1778033648.723746,1,115,22,65535
1778033648.723746,1,115,23,65535
1778033648.723746,1,115,24,65535
1778033648.723746,1,115,25,65535
1778033648.723746,1,115,26,65535
1778033648.723746,1,115,27,65535
1778033648.723746,1,115,28,65535
1778033648.723746,1,115,29,65535
1778033648.723746,1,115,30,65535
1778033648.723746,1,115,31,65535
1778033648.8256,1,116,0,65535
1778033648.8256,1,116,1,65535
1778033648.8256,1,116,2,65535
1778033648.8256,1,116,3,65535
1778033648.8256,1,116,4,65535
1778033648.8256,1,116,5,65535
1778033648.8256,1,116,6,65535
1778033648.8256,1,116,7,65535
1778033648.8256,1,116,8,65535
1778033648.8256,1,116,9,65535
1778033648.8256,1,116,10,65535
1778033648.8256,1,116,11,65535
1778033648.8256,1,116,12,65535
1778033648.8256,1,116,13,65535
1778033648.8256,1,116,14,65535
1778033648.8256,1,116,15,65535
1778033648.8256,1,116,16,65535
1778033648.8256,1,116,17,65535
1778033648.8256,1,116,18,65535
1778033648.8256,1,116,19,65535
1778033648.8256,1,116,20,65535
1778033648.8256,1,116,21,65535
1778033648.8256,1,116,22,65535
1778033648.8256,1,116,23,65535
1778033648.8256,1,116,24,65535
1778033648.8256,1,116,25,65535
1778033648.8256,1,116,26,65535
1778033648.8256,1,116,27,65535
1778033648.8256,1,116,28,65535
1778033648.8256,1,116,29,65535
1778033648.8256,1,116,30,65535
1778033648.8256,1,116,31,65535
1778033648.9278789,1,117,0,65535
1778033648.9278789,1,117,1,65535
1778033648.9278789,1,117,2,65535
1778033648.9278789,1,117,3,65535
1778033648.9278789,1,117,4,65535
1778033648.9278789,1,117,5,65535
1778033648.9278789,1,117,6,65535
1778033648.9278789,1,117,7,65535
1778033648.9278789,1,117,8,65535
1778033648.9278789,1,117,9,65535
1778033648.9278789,1,117,10,65535
1778033648.9278789,1,117,11,65535
1778033648.9278789,1,117,12,65535
1778033648.9278789,1,117,13,65535
1778033648.9278789,1,117,14,65535
1778033648.9278789,1,117,15,65535
1778033648.9278789,1,117,16,65535
1778033648.9278789,1,117,17,65535
1778033648.9278789,1,117,18,65535
1778033648.9278789,1,117,19,65535
1778033648.9278789,1,117,20,65535
1778033648.9278789,1,117,21,65535
1778033648.9278789,1,117,22,65535
1778033648.9278789,1,117,23,65535
1778033648.9278789,1,117,24,65535
1778033648.9278789,1,117,25,65535
1778033648.9278789,1,117,26,65535
1778033648.9278789,1,117,27,65535
1778033648.9278789,1,117,28,65535
1778033648.9278789,1,117,29,65535
1778033648.9278789,1,117,30,65535
1778033648.9278789,1,117,31,65535
1778033649.131086,1,118,0,65535
1778033649.131086,1,118,1,65535
1778033649.131086,1,118,2,65535
1778033649.131086,1,118,3,65535
1778033649.131086,1,118,4,65535
1778033649.131086,1,118,5,65535
1778033649.131086,1,118,6,65535
1778033649.131086,1,118,7,65535
1778033649.131086,1,118,8,65535
1778033649.131086,1,118,9,65535
1778033649.131086,1,118,10,65535
1778033649.131086,1,118,11,65535
1778033649.131086,1,118,12,65535
1778033649.131086,1,118,13,65535
1778033649.131086,1,118,14,65535
1778033649.131086,1,118,15,65535
1778033649.131086,1,118,16,65535
1778033649.131086,1,118,17,65535
1778033649.131086,1,118,18,65535
1778033649.131086,1,118,19,65535
1778033649.131086,1,118,20,65535
1778033649.131086,1,118,21,65535
1778033649.131086,1,118,22,65535
1778033649.131086,1,118,23,65535
1778033649.131086,1,118,24,65535
1778033649.131086,1,118,25,65535
1778033649.131086,1,118,26,65535
1778033649.131086,1,118,27,65535
1778033649.131086,1,118,28,65535
1778033649.131086,1,118,29,65535
1778033649.131086,1,118,30,65535
1778033649.131086,1,118,31,65535
1778033649.2332978,1,119,0,65535
1778033649.2332978,1,119,1,65535
1778033649.2332978,1,119,2,65535
1778033649.2332978,1,119,3,65535
1778033649.2332978,1,119,4,65535
1778033649.2332978,1,119,5,65535
1778033649.2332978,1,119,6,65535
1778033649.2332978,1,119,7,65535
1778033649.2332978,1,119,8,65535
1778033649.2332978,1,119,9,65535
1778033649.2332978,1,119,10,65535
1778033649.2332978,1,119,11,65535
1778033649.2332978,1,119,12,65535
1778033649.2332978,1,119,13,65535
1778033649.2332978,1,119,14,65535
1778033649.2332978,1,119,15,65535
1778033649.2332978,1,119,16,65535
1778033649.2332978,1,119,17,65535
1778033649.2332978,1,119,18,65535
1778033649.2332978,1,119,19,65535
1778033649.2332978,1,119,20,65535
1778033649.2332978,1,119,21,65535
1778033649.2332978,1,119,22,65535
1778033649.2332978,1,119,23,65535
1778033649.2332978,1,119,24,65535
1778033649.2332978,1,119,25,65535
1778033649.2332978,1,119,26,65535
1778033649.2332978,1,119,27,65535
1778033649.2332978,1,119,28,65535
1778033649.2332978,1,119,29,65535
1778033649.2332978,1,119,30,65535
1778033649.2332978,1,119,31,65535
1778033649.3352032,1,120,0,65535
1778033649.3352032,1,120,1,65535
1778033649.3352032,1,120,2,65535
1778033649.3352032,1,120,3,65535
1778033649.3352032,1,120,4,65535
1778033649.3352032,1,120,5,65535
1778033649.3352032,1,120,6,65535
1778033649.3352032,1,120,7,65535
1778033649.3352032,1,120,8,65535
1778033649.3352032,1,120,9,65535
1778033649.3352032,1,120,10,65535
1778033649.3352032,1,120,11,65535
1778033649.3352032,1,120,12,65535
1778033649.3352032,1,120,13,65535
1778033649.3352032,1,120,14,65535
1778033649.3352032,1,120,15,65535
1778033649.3352032,1,120,16,65535
1778033649.3352032,1,120,17,65535
1778033649.3352032,1,120,18,65535
1778033649.3352032,1,120,19,65535
1778033649.3352032,1,120,20,65535
1778033649.3352032,1,120,21,65535
1778033649.3352032,1,120,22,65535
1778033649.3352032,1,120,23,65535
1778033649.3352032,1,120,24,65535
1778033649.3352032,1,120,25,65535
1778033649.3352032,1,120,26,65535
1778033649.3352032,1,120,27,65535
1778033649.3352032,1,120,28,65535
1778033649.3352032,1,120,29,65535
1778033649.3352032,1,120,30,65535
1778033649.3352032,1,120,31,65535
1778033649.437896,1,121,0,65535
1778033649.437896,1,121,1,65535
1778033649.437896,1,121,2,65535
1778033649.437896,1,121,3,65535
1778033649.437896,1,121,4,65535
1778033649.437896,1,121,5,65535
1778033649.437896,1,121,6,65535
1778033649.437896,1,121,7,65535
1778033649.437896,1,121,8,65535
1778033649.437896,1,121,9,65535
1778033649.437896,1,121,10,65535
1778033649.437896,1,121,11,65535
1778033649.437896,1,121,12,65535
1778033649.437896,1,121,13,65535
1778033649.437896,1,121,14,65535
1778033649.437896,1,121,15,65535
1778033649.437896,1,121,16,65535
1778033649.437896,1,121,17,65535
1778033649.437896,1,121,18,65535
1778033649.437896,1,121,19,65535
1778033649.437896,1,121,20,65535
1778033649.437896,1,121,21,65535
1778033649.437896,1,121,22,65535
1778033649.437896,1,121,23,65535
1778033649.437896,1,121,24,65535
1778033649.437896,1,121,25,65535
1778033649.437896,1,121,26,65535
1778033649.437896,1,121,27,65535
1778033649.437896,1,121,28,65535
1778033649.437896,1,121,29,65535
1778033649.437896,1,121,30,65535
1778033649.437896,1,121,31,65535
1778033649.6409862,1,122,0,65535
1778033649.6409862,1,122,1,65535
1778033649.6409862,1,122,2,65535
1778033649.6409862,1,122,3,65535
1778033649.6409862,1,122,4,65535
1778033649.6409862,1,122,5,65535
1778033649.6409862,1,122,6,65535
1778033649.6409862,1,122,7,65535
1778033649.6409862,1,122,8,65535
1778033649.6409862,1,122,9,65535
1778033649.6409862,1,122,10,65535
1778033649.6409862,1,122,11,65535
1778033649.6409862,1,122,12,65535
1778033649.6409862,1,122,13,65535
1778033649.6409862,1,122,14,65535
1778033649.6409862,1,122,15,65535
1778033649.6409862,1,122,16,65535
1778033649.6409862,1,122,17,65535
1778033649.6409862,1,122,18,65535
1778033649.6409862,1,122,19,65535
1778033649.6409862,1,122,20,65535
1778033649.6409862,1,122,21,65535
1778033649.6409862,1,122,22,65535
1778033649.6409862,1,122,23,65535
1778033649.6409862,1,122,24,65535
1778033649.6409862,1,122,25,65535
1778033649.6409862,1,122,26,65535
1778033649.6409862,1,122,27,65535
1778033649.6409862,1,122,28,65535
1778033649.6409862,1,122,29,65535
1778033649.6409862,1,122,30,65535
1778033649.6409862,1,122,31,65535
1778033649.743455,1,123,0,65535
1778033649.743455,1,123,1,65535
1778033649.743455,1,123,2,65535
1778033649.743455,1,123,3,65535
1778033649.743455,1,123,4,65535
1778033649.743455,1,123,5,65535
1778033649.743455,1,123,6,65535
1778033649.743455,1,123,7,65535
1778033649.743455,1,123,8,65535
1778033649.743455,1,123,9,65535
1778033649.743455,1,123,10,65535
1778033649.743455,1,123,11,65535
1778033649.743455,1,123,12,65535
1778033649.743455,1,123,13,65535
1778033649.743455,1,123,14,65535
1778033649.743455,1,123,15,65535
1778033649.743455,1,123,16,65535
1778033649.743455,1,123,17,65535
1778033649.743455,1,123,18,65535
1778033649.743455,1,123,19,65535
1778033649.743455,1,123,20,65535
1778033649.743455,1,123,21,65535
1778033649.743455,1,123,22,65535
1778033649.743455,1,123,23,65535
1778033649.743455,1,123,24,65535
1778033649.743455,1,123,25,65535
1778033649.743455,1,123,26,65535
1778033649.743455,1,123,27,65535
1778033649.743455,1,123,28,65535
1778033649.743455,1,123,29,65535
1778033649.743455,1,123,30,65535
1778033649.743455,1,123,31,65535
1778033649.844793,1,124,0,65535
1778033649.844793,1,124,1,65535
1778033649.844793,1,124,2,65535
1778033649.844793,1,124,3,65535
1778033649.844793,1,124,4,65535
1778033649.844793,1,124,5,65535
1778033649.844793,1,124,6,65535
1778033649.844793,1,124,7,65535
1778033649.844793,1,124,8,65535
1778033649.844793,1,124,9,65535
1778033649.844793,1,124,10,65535
1778033649.844793,1,124,11,65535
1778033649.844793,1,124,12,65535
1778033649.844793,1,124,13,65535
1778033649.844793,1,124,14,65535
1778033649.844793,1,124,15,65535
1778033649.844793,1,124,16,65535
1778033649.844793,1,124,17,65535
1778033649.844793,1,124,18,65535
1778033649.844793,1,124,19,65535
1778033649.844793,1,124,20,65535
1778033649.844793,1,124,21,65535
1778033649.844793,1,124,22,65535
1778033649.844793,1,124,23,65535
1778033649.844793,1,124,24,65535
1778033649.844793,1,124,25,65535
1778033649.844793,1,124,26,65535
1778033649.844793,1,124,27,65535
1778033649.844793,1,124,28,65535
1778033649.844793,1,124,29,65535
1778033649.844793,1,124,30,65535
1778033649.844793,1,124,31,65535
1778033649.947832,1,125,0,65535
1778033649.947832,1,125,1,65535
1778033649.947832,1,125,2,65535
1778033649.947832,1,125,3,65535
1778033649.947832,1,125,4,65535
1778033649.947832,1,125,5,65535
1778033649.947832,1,125,6,65535
1778033649.947832,1,125,7,65535
1778033649.947832,1,125,8,65535
1778033649.947832,1,125,9,65535
1778033649.947832,1,125,10,65535
1778033649.947832,1,125,11,65535
1778033649.947832,1,125,12,65535
1778033649.947832,1,125,13,65535
1778033649.947832,1,125,14,65535
1778033649.947832,1,125,15,65535
1778033649.947832,1,125,16,65535
1778033649.947832,1,125,17,65535
1778033649.947832,1,125,18,65535
1778033649.947832,1,125,19,65535
1778033649.947832,1,125,20,65535
1778033649.947832,1,125,21,65535
1778033649.947832,1,125,22,65535
1778033649.947832,1,125,23,65535
1778033649.947832,1,125,24,65535
1778033649.947832,1,125,25,65535
1778033649.947832,1,125,26,65535
1778033649.947832,1,125,27,65535
1778033649.947832,1,125,28,65535
1778033649.947832,1,125,29,65535
1778033649.947832,1,125,30,65535
1778033649.947832,1,125,31,65535
1778033650.150892,1,126,0,65535
1778033650.150892,1,126,1,65535
1778033650.150892,1,126,2,65535
1778033650.150892,1,126,3,65535
1778033650.150892,1,126,4,65535
1778033650.150892,1,126,5,65535
1778033650.150892,1,126,6,65535
1778033650.150892,1,126,7,65535
1778033650.150892,1,126,8,65535
1778033650.150892,1,126,9,65535
1778033650.150892,1,126,10,65535
1778033650.150892,1,126,11,65535
1778033650.150892,1,126,12,65535
1778033650.150892,1,126,13,65535
1778033650.150892,1,126,14,65535
1778033650.150892,1,126,15,65535
1778033650.150892,1,126,16,65535
1778033650.150892,1,126,17,65535
1778033650.150892,1,126,18,65535
1778033650.150892,1,126,19,65535
1778033650.150892,1,126,20,65535
1778033650.150892,1,126,21,65535
1778033650.150892,1,126,22,65535
1778033650.150892,1,126,23,65535
1778033650.150892,1,126,24,65535
1778033650.150892,1,126,25,65535
1778033650.150892,1,126,26,65535
1778033650.150892,1,126,27,65535
1778033650.150892,1,126,28,65535
1778033650.150892,1,126,29,65535
1778033650.150892,1,126,30,65535
1778033650.150892,1,126,31,65535
1778033650.253128,1,127,0,65535
1778033650.253128,1,127,1,65535
1778033650.253128,1,127,2,65535
1778033650.253128,1,127,3,65535
1778033650.253128,1,127,4,65535
1778033650.253128,1,127,5,65535
1778033650.253128,1,127,6,65535
1778033650.253128,1,127,7,65535
1778033650.253128,1,127,8,65535
1778033650.253128,1,127,9,65535
1778033650.253128,1,127,10,65535
1778033650.253128,1,127,11,65535
1778033650.253128,1,127,12,65535
1778033650.253128,1,127,13,65535
1778033650.253128,1,127,14,65535
1778033650.253128,1,127,15,65535
1778033650.253128,1,127,16,65535
1778033650.253128,1,127,17,65535
1778033650.253128,1,127,18,65535
1778033650.253128,1,127,19,65535
1778033650.253128,1,127,20,65535
1778033650.253128,1,127,21,65535
1778033650.253128,1,127,22,65535
1778033650.253128,1,127,23,65535
1778033650.253128,1,127,24,65535
1778033650.253128,1,127,25,65535
1778033650.253128,1,127,26,65535
1778033650.253128,1,127,27,65535
1778033650.253128,1,127,28,65535
1778033650.253128,1,127,29,65535
1778033650.253128,1,127,30,65535
1778033650.253128,1,127,31,65535
1778033650.3679628,1,128,0,65535
1778033650.3679628,1,128,1,65535
1778033650.3679628,1,128,2,65535
1778033650.3679628,1,128,3,65535
1778033650.3679628,1,128,4,65535
1778033650.3679628,1,128,5,65535
1778033650.3679628,1,128,6,65535
1778033650.3679628,1,128,7,65535
1778033650.3679628,1,128,8,65535
1778033650.3679628,1,128,9,65535
1778033650.3679628,1,128,10,65535
1778033650.3679628,1,128,11,65535
1778033650.3679628,1,128,12,65535
1778033650.3679628,1,128,13,65535
1778033650.3679628,1,128,14,65535
1778033650.3679628,1,128,15,65535
1778033650.3679628,1,128,16,65535
1778033650.3679628,1,128,17,65535
1778033650.3679628,1,128,18,65535
1778033650.3679628,1,128,19,65535
1778033650.3679628,1,128,20,65535
1778033650.3679628,1,128,21,65535
1778033650.3679628,1,128,22,65535
1778033650.3679628,1,128,23,65535
1778033650.3679628,1,128,24,65535
1778033650.3679628,1,128,25,65535
1778033650.3679628,1,128,26,65535
1778033650.3679628,1,128,27,65535
1778033650.3679628,1,128,28,65535
1778033650.3679628,1,128,29,65535
1778033650.3679628,1,128,30,65535
1778033650.3679628,1,128,31,65535
1778033650.470399,1,129,0,65535
1778033650.470399,1,129,1,65535
1778033650.470399,1,129,2,65535
1778033650.470399,1,129,3,65535
1778033650.470399,1,129,4,65535
1778033650.470399,1,129,5,65535
1778033650.470399,1,129,6,65535
1778033650.470399,1,129,7,65535
1778033650.470399,1,129,8,65535
1778033650.470399,1,129,9,65535
1778033650.470399,1,129,10,65535
1778033650.470399,1,129,11,65535
1778033650.470399,1,129,12,65535
1778033650.470399,1,129,13,65535
1778033650.470399,1,129,14,65535
1778033650.470399,1,129,15,65535
1778033650.470399,1,129,16,65535
1778033650.470399,1,129,17,65535
1778033650.470399,1,129,18,65535
1778033650.470399,1,129,19,65535
1778033650.470399,1,129,20,65535
1778033650.470399,1,129,21,65535
1778033650.470399,1,129,22,65535
1778033650.470399,1,129,23,65535
1778033650.470399,1,129,24,65535
1778033650.470399,1,129,25,65535
1778033650.470399,1,129,26,65535
1778033650.470399,1,129,27,65535
1778033650.470399,1,129,28,65535
1778033650.470399,1,129,29,65535
1778033650.470399,1,129,30,65535
1778033650.470399,1,129,31,65535
1778033650.572704,1,130,0,65535
1778033650.572704,1,130,1,65535
1778033650.572704,1,130,2,65535
1778033650.572704,1,130,3,65535
1778033650.572704,1,130,4,65535
1778033650.572704,1,130,5,65535
1778033650.572704,1,130,6,65535
1778033650.572704,1,130,7,65535
1778033650.572704,1,130,8,65535
1778033650.572704,1,130,9,65535
1778033650.572704,1,130,10,65535
1778033650.572704,1,130,11,65535
1778033650.572704,1,130,12,65535
1778033650.572704,1,130,13,65535
1778033650.572704,1,130,14,65535
1778033650.572704,1,130,15,65535
1778033650.572704,1,130,16,65535
1778033650.572704,1,130,17,65535
1778033650.572704,1,130,18,65535
1778033650.572704,1,130,19,65535
1778033650.572704,1,130,20,65535
1778033650.572704,1,130,21,65535
1778033650.572704,1,130,22,65535
1778033650.572704,1,130,23,65535
1778033650.572704,1,130,24,65535
1778033650.572704,1,130,25,65535
1778033650.572704,1,130,26,65535
1778033650.572704,1,130,27,65535
1778033650.572704,1,130,28,65535
1778033650.572704,1,130,29,65535
1778033650.572704,1,130,30,65535
1778033650.572704,1,130,31,65535
1778033650.776397,1,131,0,65535
1778033650.776397,1,131,1,65535
1778033650.776397,1,131,2,65535
1778033650.776397,1,131,3,65535
1778033650.776397,1,131,4,65535
1778033650.776397,1,131,5,65535
1778033650.776397,1,131,6,65535
1778033650.776397,1,131,7,65535
1778033650.776397,1,131,8,65535
1778033650.776397,1,131,9,65535
1778033650.776397,1,131,10,65535
1778033650.776397,1,131,11,65535
1778033650.776397,1,131,12,65535
1778033650.776397,1,131,13,65535
1778033650.776397,1,131,14,65535
1778033650.776397,1,131,15,65535
1778033650.776397,1,131,16,65535
1778033650.776397,1,131,17,65535
1778033650.776397,1,131,18,65535
1778033650.776397,1,131,19,65535
1778033650.776397,1,131,20,65535
1778033650.776397,1,131,21,65535
1778033650.776397,1,131,22,65535
1778033650.776397,1,131,23,65535
1778033650.776397,1,131,24,65535
1778033650.776397,1,131,25,65535
1778033650.776397,1,131,26,65535
1778033650.776397,1,131,27,65535
1778033650.776397,1,131,28,65535
1778033650.776397,1,131,29,65535
1778033650.776397,1,131,30,65535
1778033650.776397,1,131,31,65535
1778033650.87955,1,132,0,65535
1778033650.87955,1,132,1,65535
1778033650.87955,1,132,2,65535
1778033650.87955,1,132,3,65535
1778033650.87955,1,132,4,65535
1778033650.87955,1,132,5,65535
1778033650.87955,1,132,6,65535
1778033650.87955,1,132,7,65535
1778033650.87955,1,132,8,65535
1778033650.87955,1,132,9,65535
1778033650.87955,1,132,10,65535
1778033650.87955,1,132,11,65535
1778033650.87955,1,132,12,65535
1778033650.87955,1,132,13,65535
1778033650.87955,1,132,14,65535
1778033650.87955,1,132,15,65535
1778033650.87955,1,132,16,65535
1778033650.87955,1,132,17,65535
1778033650.87955,1,132,18,65535
1778033650.87955,1,132,19,65535
1778033650.87955,1,132,20,65535
1778033650.87955,1,132,21,65535
1778033650.87955,1,132,22,65535
1778033650.87955,1,132,23,65535
1778033650.87955,1,132,24,65535
1778033650.87955,1,132,25,65535
1778033650.87955,1,132,26,65535
1778033650.87955,1,132,27,65535
1778033650.87955,1,132,28,65535
1778033650.87955,1,132,29,65535
1778033650.87955,1,132,30,65535
1778033650.87955,1,132,31,65535
1778033650.9828858,1,133,0,65535
1778033650.9828858,1,133,1,65535
1778033650.9828858,1,133,2,65535
1778033650.9828858,1,133,3,65535
1778033650.9828858,1,133,4,65535
1778033650.9828858,1,133,5,65535
1778033650.9828858,1,133,6,65535
1778033650.9828858,1,133,7,65535
1778033650.9828858,1,133,8,65535
1778033650.9828858,1,133,9,65535
1778033650.9828858,1,133,10,65535
1778033650.9828858,1,133,11,65535
1778033650.9828858,1,133,12,65535
1778033650.9828858,1,133,13,65535
1778033650.9828858,1,133,14,65535
1778033650.9828858,1,133,15,65535
1778033650.9828858,1,133,16,65535
1778033650.9828858,1,133,17,65535
1778033650.9828858,1,133,18,65535
1778033650.9828858,1,133,19,65535
1778033650.9828858,1,133,20,65535
1778033650.9828858,1,133,21,65535
1778033650.9828858,1,133,22,65535
1778033650.9828858,1,133,23,65535
1778033650.9828858,1,133,24,65535
1778033650.9828858,1,133,25,65535
1778033650.9828858,1,133,26,65535
1778033650.9828858,1,133,27,65535
1778033650.9828858,1,133,28,65535
1778033650.9828858,1,133,29,65535
1778033650.9828858,1,133,30,65535
1778033650.9828858,1,133,31,65535
1778033651.085431,1,134,0,65535
1778033651.085431,1,134,1,65535
1778033651.085431,1,134,2,65535
1778033651.085431,1,134,3,65535
1778033651.085431,1,134,4,65535
1778033651.085431,1,134,5,65535
1778033651.085431,1,134,6,65535
1778033651.085431,1,134,7,65535
1778033651.085431,1,134,8,65535
1778033651.085431,1,134,9,65535
1778033651.085431,1,134,10,65535
1778033651.085431,1,134,11,65535
1778033651.085431,1,134,12,65535
1778033651.085431,1,134,13,65535
1778033651.085431,1,134,14,65535
1778033651.085431,1,134,15,65535
1778033651.085431,1,134,16,65535
1778033651.085431,1,134,17,65535
1778033651.085431,1,134,18,65535
1778033651.085431,1,134,19,65535
1778033651.085431,1,134,20,65535
1778033651.085431,1,134,21,65535
1778033651.085431,1,134,22,65535
1778033651.085431,1,134,23,65535
1778033651.085431,1,134,24,65535
1778033651.085431,1,134,25,65535
1778033651.085431,1,134,26,65535
1778033651.085431,1,134,27,65535
1778033651.085431,1,134,28,65535
1778033651.085431,1,134,29,65535
1778033651.085431,1,134,30,65535
1778033651.085431,1,134,31,65535
1778033651.28754,1,135,0,65535
1778033651.28754,1,135,1,65535
1778033651.28754,1,135,2,65535
1778033651.28754,1,135,3,65535
1778033651.28754,1,135,4,65535
1778033651.28754,1,135,5,65535
1778033651.28754,1,135,6,65535
1778033651.28754,1,135,7,65535
1778033651.28754,1,135,8,65535
1778033651.28754,1,135,9,65535
1778033651.28754,1,135,10,65535
1778033651.28754,1,135,11,65535
1778033651.28754,1,135,12,65535
1778033651.28754,1,135,13,65535
1778033651.28754,1,135,14,65535
1778033651.28754,1,135,15,65535
1778033651.28754,1,135,16,65535
1778033651.28754,1,135,17,65535
1778033651.28754,1,135,18,65535
1778033651.28754,1,135,19,65535
1778033651.28754,1,135,20,65535
1778033651.28754,1,135,21,65535
1778033651.28754,1,135,22,65535
1778033651.28754,1,135,23,65535
1778033651.28754,1,135,24,65535
1778033651.28754,1,135,25,65535
1778033651.28754,1,135,26,65535
1778033651.28754,1,135,27,65535
1778033651.28754,1,135,28,65535
1778033651.28754,1,135,29,65535
1778033651.28754,1,135,30,65535
1778033651.28754,1,135,31,65535
1778033651.390708,1,136,0,65535
1778033651.390708,1,136,1,65535
1778033651.390708,1,136,2,65535
1778033651.390708,1,136,3,65535
1778033651.390708,1,136,4,65535
1778033651.390708,1,136,5,65535
1778033651.390708,1,136,6,65535
1778033651.390708,1,136,7,65535
1778033651.390708,1,136,8,65535
1778033651.390708,1,136,9,65535
1778033651.390708,1,136,10,65535
1778033651.390708,1,136,11,65535
1778033651.390708,1,136,12,65535
1778033651.390708,1,136,13,65535
1778033651.390708,1,136,14,65535
1778033651.390708,1,136,15,65535
1778033651.390708,1,136,16,65535
1778033651.390708,1,136,17,65535
1778033651.390708,1,136,18,65535
1778033651.390708,1,136,19,65535
1778033651.390708,1,136,20,65535
1778033651.390708,1,136,21,65535
1778033651.390708,1,136,22,65535
1778033651.390708,1,136,23,65535
1778033651.390708,1,136,24,65535
1778033651.390708,1,136,25,65535
1778033651.390708,1,136,26,65535
1778033651.390708,1,136,27,65535
1778033651.390708,1,136,28,65535
1778033651.390708,1,136,29,65535
1778033651.390708,1,136,30,65535
1778033651.390708,1,136,31,65535
1778033651.494379,1,137,0,65535
1778033651.494379,1,137,1,65535
1778033651.494379,1,137,2,65535
1778033651.494379,1,137,3,65535
1778033651.494379,1,137,4,65535
1778033651.494379,1,137,5,65535
1778033651.494379,1,137,6,65535
1778033651.494379,1,137,7,65535
1778033651.494379,1,137,8,65535
1778033651.494379,1,137,9,65535
1778033651.494379,1,137,10,65535
1778033651.494379,1,137,11,65535
1778033651.494379,1,137,12,65535
1778033651.494379,1,137,13,65535
1778033651.494379,1,137,14,65535
1778033651.494379,1,137,15,65535
1778033651.494379,1,137,16,65535
1778033651.494379,1,137,17,65535
1778033651.494379,1,137,18,65535
1778033651.494379,1,137,19,65535
1778033651.494379,1,137,20,65535
1778033651.494379,1,137,21,65535
1778033651.494379,1,137,22,65535
1778033651.494379,1,137,23,65535
1778033651.494379,1,137,24,65535
1778033651.494379,1,137,25,65535
1778033651.494379,1,137,26,65535
1778033651.494379,1,137,27,65535
1778033651.494379,1,137,28,65535
1778033651.494379,1,137,29,65535
1778033651.494379,1,137,30,65535
1778033651.494379,1,137,31,65535
1778033651.597007,1,138,0,65535
1778033651.597007,1,138,1,65535
1778033651.597007,1,138,2,65535
1778033651.597007,1,138,3,65535
1778033651.597007,1,138,4,65535
1778033651.597007,1,138,5,65535
1778033651.597007,1,138,6,65535
