wall_ts,node,seq,sample_index,value
1778033633.9896572,1,0,0,65535
1778033633.9896572,1,0,1,65535
1778033633.9896572,1,0,2,65535
1778033633.9896572,1,0,3,65535
1778033633.9896572,1,0,4,65535
1778033633.9896572,1,0,5,65535
1778033633.9896572,1,0,6,65535
1778033633.9896572,1,0,7,65535
1778033633.9896572,1,0,8,65535
1778033633.9896572,1,0,9,65535
1778033633.9896572,1,0,10,65535
1778033633.9896572,1,0,11,65535
1778033633.9896572,1,0,12,65535
1778033633.9896572,1,0,13,65535
1778033633.9896572,1,0,14,65535
1778033633.9896572,1,0,15,65535
1778033633.9896572,1,0,16,65535
1778033633.9896572,1,0,17,65535
1778033633.9896572,1,0,18,65535
1778033633.9896572,1,0,19,65535
1778033633.9896572,1,0,20,65535
1778033633.9896572,1,0,21,65535
1778033633.9896572,1,0,22,65535
1778033633.9896572,1,0,23,65535
1778033633.9896572,1,0,24,65535
1778033633.9896572,1,0,25,65535
1778033633.9896572,1,0,26,65535
1778033633.9896572,1,0,27,65535
1778033633.9896572,1,0,28,65535
1778033633.9896572,1,0,29,65535
1778033633.9896572,1,0,30,65535
1778033633.9896572,1,0,31,65535
1778033634.091136,1,1,0,65535
1778033634.091136,1,1,1,65535
1778033634.091136,1,1,2,65535
1778033634.091136,1,1,3,65535
1778033634.091136,1,1,4,65535
1778033634.091136,1,1,5,65535
1778033634.091136,1,1,6,65535
1778033634.091136,1,1,7,65535
1778033634.091136,1,1,8,65535
1778033634.091136,1,1,9,65535
1778033634.091136,1,1,10,65535
1778033634.091136,1,1,11,65535
1778033634.091136,1,1,12,65535
1778033634.091136,1,1,13,65535
1778033634.091136,1,1,14,65535
1778033634.091136,1,1,15,65535
1778033634.091136,1,1,16,65535
1778033634.091136,1,1,17,65535
1778033634.091136,1,1,18,65535
1778033634.091136,1,1,19,65535
1778033634.091136,1,1,20,65535
1778033634.091136,1,1,21,65535
1778033634.091136,1,1,22,65535
1778033634.091136,1,1,23,65535
1778033634.091136,1,1,24,65535
1778033634.091136,1,1,25,65535
1778033634.091136,1,1,26,65535
1778033634.091136,1,1,27,65535
1778033634.091136,1,1,28,65535
1778033634.091136,1,1,29,65535
1778033634.091136,1,1,30,65535
1778033634.091136,1,1,31,65535
1778033634.192149,1,2,0,65535
1778033634.192149,1,2,1,65535
1778033634.192149,1,2,2,65535
1778033634.192149,1,2,3,65535
1778033634.192149,1,2,4,65535
1778033634.192149,1,2,5,65535
1778033634.192149,1,2,6,65535
1778033634.192149,1,2,7,65535
1778033634.192149,1,2,8,65535
1778033634.192149,1,2,9,65535
1778033634.192149,1,2,10,65535
1778033634.192149,1,2,11,65535
1778033634.192149,1,2,12,65535
1778033634.192149,1,2,13,65535
1778033634.192149,1,2,14,65535
1778033634.192149,1,2,15,65535
1778033634.192149,1,2,16,65535
1778033634.192149,1,2,17,65535
1778033634.192149,1,2,18,65535
1778033634.192149,1,2,19,65535
1778033634.192149,1,2,20,65535
1778033634.192149,1,2,21,65535
1778033634.192149,1,2,22,65535
1778033634.192149,1,2,23,65535
1778033634.192149,1,2,24,65535
1778033634.192149,1,2,25,65535
1778033634.192149,1,2,26,65535
1778033634.192149,1,2,27,65535
1778033634.192149,1,2,28,65535
1778033634.192149,1,2,29,65535
1778033634.192149,1,2,30,65535
1778033634.192149,1,2,31,65535
1778033634.3934422,1,3,0,65535
1778033634.3934422,1,3,1,65535
1778033634.3934422,1,3,2,65535
1778033634.3934422,1,3,3,65535
1778033634.3934422,1,3,4,65535
1778033634.3934422,1,3,5,65535
1778033634.3934422,1,3,6,65535
1778033634.3934422,1,3,7,65535
1778033634.3934422,1,3,8,65535
1778033634.3934422,1,3,9,65535
1778033634.3934422,1,3,10,65535
1778033634.3934422,1,3,11,65535
1778033634.3934422,1,3,12,65535
1778033634.3934422,1,3,13,65535
1778033634.3934422,1,3,14,65535
1778033634.3934422,1,3,15,65535
1778033634.3934422,1,3,16,65535
1778033634.3934422,1,3,17,65535
1778033634.3934422,1,3,18,65535
1778033634.3934422,1,3,19,65535
1778033634.3934422,1,3,20,65535
1778033634.3934422,1,3,21,65535
1778033634.3934422,1,3,22,65535
1778033634.3934422,1,3,23,65535
1778033634.3934422,1,3,24,65535
1778033634.3934422,1,3,25,65535
1778033634.3934422,1,3,26,65535
1778033634.3934422,1,3,27,65535
1778033634.3934422,1,3,28,65535
1778033634.3934422,1,3,29,65535
1778033634.3934422,1,3,30,65535
1778033634.3934422,1,3,31,65535
1778033634.494215,1,4,0,65535
1778033634.494215,1,4,1,65535
1778033634.494215,1,4,2,65535
1778033634.494215,1,4,3,65535
1778033634.494215,1,4,4,65535
1778033634.494215,1,4,5,65535
1778033634.494215,1,4,6,65535
1778033634.494215,1,4,7,65535
1778033634.494215,1,4,8,65535
1778033634.494215,1,4,9,65535
1778033634.494215,1,4,10,65535
1778033634.494215,1,4,11,65535
1778033634.494215,1,4,12,65535
1778033634.494215,1,4,13,65535
1778033634.494215,1,4,14,65535
1778033634.494215,1,4,15,65535
1778033634.494215,1,4,16,65535
1778033634.494215,1,4,17,65535
1778033634.494215,1,4,18,65535
1778033634.494215,1,4,19,65535
1778033634.494215,1,4,20,65535
1778033634.494215,1,4,21,65535
1778033634.494215,1,4,22,65535
1778033634.494215,1,4,23,65535
1778033634.494215,1,4,24,65535
1778033634.494215,1,4,25,65535
1778033634.494215,1,4,26,65535
1778033634.494215,1,4,27,65535
1778033634.494215,1,4,28,65535
1778033634.494215,1,4,29,65535
1778033634.494215,1,4,30,65535
1778033634.494215,1,4,31,65535
1778033634.594784,1,5,0,65535
1778033634.594784,1,5,1,65535
1778033634.594784,1,5,2,65535
1778033634.594784,1,5,3,65535
1778033634.594784,1,5,4,65535
1778033634.594784,1,5,5,65535
1778033634.594784,1,5,6,65535
1778033634.594784,1,5,7,65535
1778033634.594784,1,5,8,65535
1778033634.594784,1,5,9,65535
1778033634.594784,1,5,10,65535
1778033634.594784,1,5,11,65535
1778033634.594784,1,5,12,65535
1778033634.594784,1,5,13,65535
1778033634.594784,1,5,14,65535
1778033634.594784,1,5,15,65535
1778033634.594784,1,5,16,65535
1778033634.594784,1,5,17,65535
1778033634.594784,1,5,18,65535
1778033634.594784,1,5,19,65535
1778033634.594784,1,5,20,65535
1778033634.594784,1,5,21,65535
1778033634.594784,1,5,22,65535
1778033634.594784,1,5,23,65535
1778033634.594784,1,5,24,65535
1778033634.594784,1,5,25,65535
1778033634.594784,1,5,26,65535
1778033634.594784,1,5,27,65535
1778033634.594784,1,5,28,65535
1778033634.594784,1,5,29,65535
1778033634.594784,1,5,30,65535
1778033634.594784,1,5,31,65535
1778033634.713591,1,6,0,65535
1778033634.713591,1,6,1,65535
1778033634.713591,1,6,2,65535
1778033634.713591,1,6,3,65535
1778033634.713591,1,6,4,65535
1778033634.713591,1,6,5,65535
1778033634.713591,1,6,6,65535
1778033634.713591,1,6,7,65535
1778033634.713591,1,6,8,65535
1778033634.713591,1,6,9,65535
1778033634.713591,1,6,10,65535
1778033634.713591,1,6,11,65535
1778033634.713591,1,6,12,65535
1778033634.713591,1,6,13,65535
1778033634.713591,1,6,14,65535
1778033634.713591,1,6,15,65535
1778033634.713591,1,6,16,65535
1778033634.713591,1,6,17,65535
1778033634.713591,1,6,18,65535
1778033634.713591,1,6,19,65535
1778033634.713591,1,6,20,65535
1778033634.713591,1,6,21,65535
1778033634.713591,1,6,22,65535
1778033634.713591,1,6,23,65535
1778033634.713591,1,6,24,65535
1778033634.713591,1,6,25,65535
1778033634.713591,1,6,26,65535
1778033634.713591,1,6,27,65535
1778033634.713591,1,6,28,65535
1778033634.713591,1,6,29,65535
1778033634.713591,1,6,30,65535
1778033634.713591,1,6,31,65535
1778033634.9157178,1,7,0,65535
1778033634.9157178,1,7,1,65535
1778033634.9157178,1,7,2,65535
1778033634.9157178,1,7,3,65535
1778033634.9157178,1,7,4,65535
1778033634.9157178,1,7,5,65535
1778033634.9157178,1,7,6,65535
1778033634.9157178,1,7,7,65535
1778033634.9157178,1,7,8,65535
1778033634.9157178,1,7,9,65535
1778033634.9157178,1,7,10,65535
1778033634.9157178,1,7,11,65535
1778033634.9157178,1,7,12,65535
1778033634.9157178,1,7,13,65535
1778033634.9157178,1,7,14,65535
1778033634.9157178,1,7,15,65535
1778033634.9157178,1,7,16,65535
1778033634.9157178,1,7,17,65535
1778033634.9157178,1,7,18,65535
1778033634.9157178,1,7,19,65535
1778033634.9157178,1,7,20,65535
1778033634.9157178,1,7,21,65535
1778033634.9157178,1,7,22,65535
1778033634.9157178,1,7,23,65535
1778033634.9157178,1,7,24,65535
1778033634.9157178,1,7,25,65535
1778033634.9157178,1,7,26,65535
1778033634.9157178,1,7,27,65535
1778033634.9157178,1,7,28,65535
1778033634.9157178,1,7,29,65535
1778033634.9157178,1,7,30,65535
1778033634.9157178,1,7,31,65535
1778033635.0164669,1,8,0,65535
1778033635.0164669,1,8,1,65535
1778033635.0164669,1,8,2,65535
1778033635.0164669,1,8,3,65535
1778033635.0164669,1,8,4,65535
1778033635.0164669,1,8,5,65535
1778033635.0164669,1,8,6,65535
1778033635.0164669,1,8,7,65535
1778033635.0164669,1,8,8,65535
1778033635.0164669,1,8,9,65535
1778033635.0164669,1,8,10,65535
1778033635.0164669,1,8,11,65535
1778033635.0164669,1,8,12,65535
1778033635.0164669,1,8,13,65535
1778033635.0164669,1,8,14,65535
1778033635.0164669,1,8,15,65535
1778033635.0164669,1,8,16,65535
1778033635.0164669,1,8,17,65535
1778033635.0164669,1,8,18,65535
1778033635.0164669,1,8,19,65535
1778033635.0164669,1,8,20,65535
1778033635.0164669,1,8,21,65535
1778033635.0164669,1,8,22,65535
1778033635.0164669,1,8,23,65535
1778033635.0164669,1,8,24,65535
1778033635.0164669,1,8,25,65535
1778033635.0164669,1,8,26,65535
1778033635.0164669,1,8,27,65535
1778033635.0164669,1,8,28,65535
1778033635.0164669,1,8,29,65535
1778033635.0164669,1,8,30,65535
1778033635.0164669,1,8,31,65535
1778033635.117939,1,9,0,65535
1778033635.117939,1,9,1,65535
1778033635.117939,1,9,2,65535
1778033635.117939,1,9,3,65535
1778033635.117939,1,9,4,65535
1778033635.117939,1,9,5,65535
1778033635.117939,1,9,6,65535
1778033635.117939,1,9,7,65535
1778033635.117939,1,9,8,65535
1778033635.117939,1,9,9,65535
1778033635.117939,1,9,10,65535
1778033635.117939,1,9,11,65535
1778033635.117939,1,9,12,65535
1778033635.117939,1,9,13,65535
1778033635.117939,1,9,14,65535
1778033635.117939,1,9,15,65535
1778033635.117939,1,9,16,65535
1778033635.117939,1,9,17,65535
1778033635.117939,1,9,18,65535
1778033635.117939,1,9,19,65535
1778033635.117939,1,9,20,65535
1778033635.117939,1,9,21,65535
1778033635.117939,1,9,22,65535
1778033635.117939,1,9,23,65535
1778033635.117939,1,9,24,65535
1778033635.117939,1,9,25,65535
1778033635.117939,1,9,26,65535
1778033635.117939,1,9,27,65535
1778033635.117939,1,9,28,65535
1778033635.117939,1,9,29,65535
1778033635.117939,1,9,30,65535
1778033635.117939,1,9,31,65535
1778033635.2194061,1,10,0,65535
1778033635.2194061,1,10,1,65535
1778033635.2194061,1,10,2,65535
1778033635.2194061,1,10,3,65535
1778033635.2194061,1,10,4,65535
1778033635.2194061,1,10,5,65535
1778033635.2194061,1,10,6,65535
1778033635.2194061,1,10,7,65535
1778033635.2194061,1,10,8,65535
1778033635.2194061,1,10,9,65535
1778033635.2194061,1,10,10,65535
1778033635.2194061,1,10,11,65535
1778033635.2194061,1,10,12,65535
1778033635.2194061,1,10,13,65535
1778033635.2194061,1,10,14,65535
1778033635.2194061,1,10,15,65535
1778033635.2194061,1,10,16,65535
1778033635.2194061,1,10,17,65535
1778033635.2194061,1,10,18,65535
1778033635.2194061,1,10,19,65535
1778033635.2194061,1,10,20,65535
1778033635.2194061,1,10,21,65535
1778033635.2194061,1,10,22,65535
1778033635.2194061,1,10,23,65535
1778033635.2194061,1,10,24,65535
1778033635.2194061,1,10,25,65535
1778033635.2194061,1,10,26,65535
1778033635.2194061,1,10,27,65535
1778033635.2194061,1,10,28,65535
1778033635.2194061,1,10,29,65535
1778033635.2194061,1,10,30,65535
1778033635.2194061,1,10,31,65535
1778033635.421819,1,11,0,65535
1778033635.421819,1,11,1,65535
1778033635.421819,1,11,2,65535
1778033635.421819,1,11,3,65535
1778033635.421819,1,11,4,65535
1778033635.421819,1,11,5,65535
1778033635.421819,1,11,6,65535
1778033635.421819,1,11,7,65535
1778033635.421819,1,11,8,65535
1778033635.421819,1,11,9,65535
1778033635.421819,1,11,10,65535
1778033635.421819,1,11,11,65535
1778033635.421819,1,11,12,65535
1778033635.421819,1,11,13,65535
1778033635.421819,1,11,14,65535
1778033635.421819,1,11,15,65535
1778033635.421819,1,11,16,65535
1778033635.421819,1,11,17,65535
1778033635.421819,1,11,18,65535
1778033635.421819,1,11,19,65535
1778033635.421819,1,11,20,65535
1778033635.421819,1,11,21,65535
1778033635.421819,1,11,22,65535
1778033635.421819,1,11,23,65535
1778033635.421819,1,11,24,65535
1778033635.421819,1,11,25,65535
1778033635.421819,1,11,26,65535
1778033635.421819,1,11,27,65535
1778033635.421819,1,11,28,65535
1778033635.421819,1,11,29,65535
1778033635.421819,1,11,30,65535
1778033635.421819,1,11,31,65535
1778033635.522911,1,12,0,65535
1778033635.522911,1,12,1,65535
1778033635.522911,1,12,2,65535
1778033635.522911,1,12,3,65535
1778033635.522911,1,12,4,65535
1778033635.522911,1,12,5,65535
1778033635.522911,1,12,6,65535
1778033635.522911,1,12,7,65535
1778033635.522911,1,12,8,65535
1778033635.522911,1,12,9,65535
1778033635.522911,1,12,10,65535
1778033635.522911,1,12,11,65535
1778033635.522911,1,12,12,65535
1778033635.522911,1,12,13,65535
1778033635.522911,1,12,14,65535
1778033635.522911,1,12,15,65535
1778033635.522911,1,12,16,65535
1778033635.522911,1,12,17,65535
1778033635.522911,1,12,18,65535
1778033635.522911,1,12,19,65535
1778033635.522911,1,12,20,65535
1778033635.522911,1,12,21,65535
1778033635.522911,1,12,22,65535
1778033635.522911,1,12,23,65535
1778033635.522911,1,12,24,65535
1778033635.522911,1,12,25,65535
1778033635.522911,1,12,26,65535
1778033635.522911,1,12,27,65535
1778033635.522911,1,12,28,65535
1778033635.522911,1,12,29,65535
1778033635.522911,1,12,30,65535
1778033635.522911,1,12,31,65535
1778033635.6243892,1,13,0,65535
1778033635.6243892,1,13,1,65535
1778033635.6243892,1,13,2,65535
1778033635.6243892,1,13,3,65535
1778033635.6243892,1,13,4,65535
1778033635.6243892,1,13,5,65535
1778033635.6243892,1,13,6,65535
1778033635.6243892,1,13,7,65535
1778033635.6243892,1,13,8,65535
1778033635.6243892,1,13,9,65535
1778033635.6243892,1,13,10,65535
1778033635.6243892,1,13,11,65535
1778033635.6243892,1,13,12,65535
1778033635.6243892,1,13,13,65535
1778033635.6243892,1,13,14,65535
1778033635.6243892,1,13,15,65535
1778033635.6243892,1,13,16,65535
1778033635.6243892,1,13,17,65535
1778033635.6243892,1,13,18,65535
1778033635.6243892,1,13,19,65535
1778033635.6243892,1,13,20,65535
1778033635.6243892,1,13,21,65535
1778033635.6243892,1,13,22,65535
1778033635.6243892,1,13,23,65535
1778033635.6243892,1,13,24,65535
1778033635.6243892,1,13,25,65535
1778033635.6243892,1,13,26,65535
1778033635.6243892,1,13,27,65535
1778033635.6243892,1,13,28,65535
1778033635.6243892,1,13,29,65535
1778033635.6243892,1,13,30,65535
1778033635.6243892,1,13,31,65535
