wall_ts,node,seq,sample_index,value
1778033297.945575,1,317,0,65535
1778033297.945575,1,317,1,65535
1778033297.945575,1,317,2,65535
1778033297.945575,1,317,3,65535
1778033297.945575,1,317,4,65535
1778033297.945575,1,317,5,65535
1778033297.945575,1,317,6,65535
1778033297.945575,1,317,7,65535
1778033297.945575,1,317,8,65535
1778033297.945575,1,317,9,65535
1778033297.945575,1,317,10,65535
1778033297.945575,1,317,11,65535
1778033297.945575,1,317,12,65535
1778033297.945575,1,317,13,65535
1778033297.945575,1,317,14,65535
1778033297.945575,1,317,15,65535
1778033297.945575,1,317,16,65535
1778033297.945575,1,317,17,65535
1778033297.945575,1,317,18,65535
1778033297.945575,1,317,19,65535
1778033297.945575,1,317,20,65535
1778033297.945575,1,317,21,65535
1778033297.945575,1,317,22,65535
1778033297.945575,1,317,23,65535
1778033297.945575,1,317,24,65535
1778033297.945575,1,317,25,65535
1778033297.945575,1,317,26,65535
1778033297.945575,1,317,27,65535
1778033297.945575,1,317,28,65535
1778033297.945575,1,317,29,65535
1778033297.945575,1,317,30,65535
1778033297.945575,1,317,31,65535
1778033298.04703,1,318,0,65535
1778033298.04703,1,318,1,65535
1778033298.04703,1,318,2,65535
1778033298.04703,1,318,3,65535
1778033298.04703,1,318,4,65535
1778033298.04703,1,318,5,65535
1778033298.04703,1,318,6,65535
1778033298.04703,1,318,7,65535
1778033298.04703,1,318,8,65535
1778033298.04703,1,318,9,65535
1778033298.04703,1,318,10,65535
1778033298.04703,1,318,11,65535
1778033298.04703,1,318,12,65535
1778033298.04703,1,318,13,65535
1778033298.04703,1,318,14,65535
1778033298.04703,1,318,15,65535
1778033298.04703,1,318,16,65535
1778033298.04703,1,318,17,65535
1778033298.04703,1,318,18,65535
1778033298.04703,1,318,19,65535
1778033298.04703,1,318,20,65535
1778033298.04703,1,318,21,65535
1778033298.04703,1,318,22,65535
1778033298.04703,1,318,23,65535
1778033298.04703,1,318,24,65535
1778033298.04703,1,318,25,65535
1778033298.04703,1,318,26,65535
1778033298.04703,1,318,27,65535
1778033298.04703,1,318,28,65535
1778033298.04703,1,318,29,65535
1778033298.04703,1,318,30,65535
1778033298.04703,1,318,31,65535
1778033298.250008,1,319,0,65535
1778033298.250008,1,319,1,65535
1778033298.250008,1,319,2,65535
1778033298.250008,1,319,3,65535
1778033298.250008,1,319,4,65535
1778033298.250008,1,319,5,65535
1778033298.250008,1,319,6,65535
1778033298.250008,1,319,7,65535
1778033298.250008,1,319,8,65535
1778033298.250008,1,319,9,65535
1778033298.250008,1,319,10,65535
1778033298.250008,1,319,11,65535
1778033298.250008,1,319,12,65535
1778033298.250008,1,319,13,65535
1778033298.250008,1,319,14,65535
1778033298.250008,1,319,15,65535
1778033298.250008,1,319,16,65535
1778033298.250008,1,319,17,65535
1778033298.250008,1,319,18,65535
1778033298.250008,1,319,19,65535
1778033298.250008,1,319,20,65535
1778033298.250008,1,319,21,65535
1778033298.250008,1,319,22,65535
1778033298.250008,1,319,23,65535
1778033298.250008,1,319,24,65535
1778033298.250008,1,319,25,65535
1778033298.250008,1,319,26,65535
1778033298.250008,1,319,27,65535
1778033298.250008,1,319,28,65535
1778033298.250008,1,319,29,65535
1778033298.250008,1,319,30,65535
1778033298.250008,1,319,31,65535
1778033298.3515341,1,320,0,65535
1778033298.3515341,1,320,1,65535
1778033298.3515341,1,320,2,65535
1778033298.3515341,1,320,3,65535
1778033298.3515341,1,320,4,65535
1778033298.3515341,1,320,5,65535
1778033298.3515341,1,320,6,65535
1778033298.3515341,1,320,7,65535
1778033298.3515341,1,320,8,65535
1778033298.3515341,1,320,9,65535
1778033298.3515341,1,320,10,65535
1778033298.3515341,1,320,11,65535
1778033298.3515341,1,320,12,65535
1778033298.3515341,1,320,13,65535
1778033298.3515341,1,320,14,65535
1778033298.3515341,1,320,15,65535
1778033298.3515341,1,320,16,65535
1778033298.3515341,1,320,17,65535
1778033298.3515341,1,320,18,65535
1778033298.3515341,1,320,19,65535
1778033298.3515341,1,320,20,65535
1778033298.3515341,1,320,21,65535
1778033298.3515341,1,320,22,65535
1778033298.3515341,1,320,23,65535
1778033298.3515341,1,320,24,65535
1778033298.3515341,1,320,25,65535
1778033298.3515341,1,320,26,65535
1778033298.3515341,1,320,27,65535
1778033298.3515341,1,320,28,65535
1778033298.3515341,1,320,29,65535
1778033298.3515341,1,320,30,65535
1778033298.3515341,1,320,31,65535
1778033298.452838,1,321,0,65535
1778033298.452838,1,321,1,65535
1778033298.452838,1,321,2,65535
1778033298.452838,1,321,3,65535
1778033298.452838,1,321,4,65535
1778033298.452838,1,321,5,65535
1778033298.452838,1,321,6,65535
1778033298.452838,1,321,7,65535
1778033298.452838,1,321,8,65535
1778033298.452838,1,321,9,65535
1778033298.452838,1,321,10,65535
1778033298.452838,1,321,11,65535
1778033298.452838,1,321,12,65535
1778033298.452838,1,321,13,65535
1778033298.452838,1,321,14,65535
1778033298.452838,1,321,15,65535
1778033298.452838,1,321,16,65535
1778033298.452838,1,321,17,65535
1778033298.452838,1,321,18,65535
1778033298.452838,1,321,19,65535
1778033298.452838,1,321,20,65535
1778033298.452838,1,321,21,65535
1778033298.452838,1,321,22,65535
1778033298.452838,1,321,23,65535
1778033298.452838,1,321,24,65535
1778033298.452838,1,321,25,65535
1778033298.452838,1,321,26,65535
1778033298.452838,1,321,27,65535
1778033298.452838,1,321,28,65535
1778033298.452838,1,321,29,65535
1778033298.452838,1,321,30,65535
1778033298.452838,1,321,31,65535
1778033298.554431,1,322,0,65535
1778033298.554431,1,322,1,65535
1778033298.554431,1,322,2,65535
1778033298.554431,1,322,3,65535
1778033298.554431,1,322,4,65535
1778033298.554431,1,322,5,65535
1778033298.554431,1,322,6,65535
1778033298.554431,1,322,7,65535
1778033298.554431,1,322,8,65535
1778033298.554431,1,322,9,65535
1778033298.554431,1,322,10,65535
1778033298.554431,1,322,11,65535
1778033298.554431,1,322,12,65535
1778033298.554431,1,322,13,65535
1778033298.554431,1,322,14,65535
1778033298.554431,1,322,15,65535
1778033298.554431,1,322,16,65535
1778033298.554431,1,322,17,65535
1778033298.554431,1,322,18,65535
1778033298.554431,1,322,19,65535
1778033298.554431,1,322,20,65535
1778033298.554431,1,322,21,65535
1778033298.554431,1,322,22,65535
1778033298.554431,1,322,23,65535
1778033298.554431,1,322,24,65535
1778033298.554431,1,322,25,65535
1778033298.554431,1,322,26,65535
1778033298.554431,1,322,27,65535
1778033298.554431,1,322,28,65535
1778033298.554431,1,322,29,65535
1778033298.554431,1,322,30,65535
1778033298.554431,1,322,31,65535
1778033298.7575638,1,323,0,65535
1778033298.7575638,1,323,1,65535
1778033298.7575638,1,323,2,65535
1778033298.7575638,1,323,3,65535
1778033298.7575638,1,323,4,65535
1778033298.7575638,1,323,5,65535
1778033298.7575638,1,323,6,65535
1778033298.7575638,1,323,7,65535
1778033298.7575638,1,323,8,65535
1778033298.7575638,1,323,9,65535
1778033298.7575638,1,323,10,65535
1778033298.7575638,1,323,11,65535
1778033298.7575638,1,323,12,65535
1778033298.7575638,1,323,13,65535
1778033298.7575638,1,323,14,65535
1778033298.7575638,1,323,15,65535
1778033298.7575638,1,323,16,65535
1778033298.7575638,1,323,17,65535
1778033298.7575638,1,323,18,65535
1778033298.7575638,1,323,19,65535
1778033298.7575638,1,323,20,65535
1778033298.7575638,1,323,21,65535
1778033298.7575638,1,323,22,65535
1778033298.7575638,1,323,23,65535
1778033298.7575638,1,323,24,65535
1778033298.7575638,1,323,25,65535
1778033298.7575638,1,323,26,65535
1778033298.7575638,1,323,27,65535
1778033298.7575638,1,323,28,65535
1778033298.7575638,1,323,29,65535
1778033298.7575638,1,323,30,65535
1778033298.7575638,1,323,31,65535
1778033298.859117,1,324,0,65535
1778033298.859117,1,324,1,65535
1778033298.859117,1,324,2,65535
1778033298.859117,1,324,3,65535
1778033298.859117,1,324,4,65535
1778033298.859117,1,324,5,65535
1778033298.859117,1,324,6,65535
1778033298.859117,1,324,7,65535
1778033298.859117,1,324,8,65535
1778033298.859117,1,324,9,65535
1778033298.859117,1,324,10,65535
1778033298.859117,1,324,11,65535
1778033298.859117,1,324,12,65535
1778033298.859117,1,324,13,65535
1778033298.859117,1,324,14,65535
1778033298.859117,1,324,15,65535
1778033298.859117,1,324,16,65535
1778033298.859117,1,324,17,65535
1778033298.859117,1,324,18,65535
1778033298.859117,1,324,19,65535
1778033298.859117,1,324,20,65535
1778033298.859117,1,324,21,65535
1778033298.859117,1,324,22,65535
1778033298.859117,1,324,23,65535
1778033298.859117,1,324,24,65535
1778033298.859117,1,324,25,65535
1778033298.859117,1,324,26,65535
1778033298.859117,1,324,27,65535
1778033298.859117,1,324,28,65535
1778033298.859117,1,324,29,65535
1778033298.859117,1,324,30,65535
1778033298.859117,1,324,31,65535
1778033298.96063,1,325,0,65535
1778033298.96063,1,325,1,65535
1778033298.96063,1,325,2,65535
1778033298.96063,1,325,3,65535
1778033298.96063,1,325,4,65535
1778033298.96063,1,325,5,65535
1778033298.96063,1,325,6,65535
1778033298.96063,1,325,7,65535
1778033298.96063,1,325,8,65535
1778033298.96063,1,325,9,65535
1778033298.96063,1,325,10,65535
1778033298.96063,1,325,11,65535
1778033298.96063,1,325,12,65535
1778033298.96063,1,325,13,65535
1778033298.96063,1,325,14,65535
1778033298.96063,1,325,15,65535
1778033298.96063,1,325,16,65535
1778033298.96063,1,325,17,65535
1778033298.96063,1,325,18,65535
1778033298.96063,1,325,19,65535
1778033298.96063,1,325,20,65535
1778033298.96063,1,325,21,65535
1778033298.96063,1,325,22,65535
1778033298.96063,1,325,23,65535
1778033298.96063,1,325,24,65535
1778033298.96063,1,325,25,65535
1778033298.96063,1,325,26,65535
1778033298.96063,1,325,27,65535
1778033298.96063,1,325,28,65535
1778033298.96063,1,325,29,65535
1778033298.96063,1,325,30,65535
1778033298.96063,1,325,31,65535
1778033299.061131,1,326,0,65535
1778033299.061131,1,326,1,65535
1778033299.061131,1,326,2,65535
1778033299.061131,1,326,3,65535
1778033299.061131,1,326,4,65535
1778033299.061131,1,326,5,65535
1778033299.061131,1,326,6,65535
1778033299.061131,1,326,7,65535
1778033299.061131,1,326,8,65535
1778033299.061131,1,326,9,65535
1778033299.061131,1,326,10,65535
1778033299.061131,1,326,11,65535
1778033299.061131,1,326,12,65535
1778033299.061131,1,326,13,65535
1778033299.061131,1,326,14,65535
1778033299.061131,1,326,15,65535
1778033299.061131,1,326,16,65535
1778033299.061131,1,326,17,65535
1778033299.061131,1,326,18,65535
1778033299.061131,1,326,19,65535
1778033299.061131,1,326,20,65535
1778033299.061131,1,326,21,65535
1778033299.061131,1,326,22,65535
1778033299.061131,1,326,23,65535
1778033299.061131,1,326,24,65535
1778033299.061131,1,326,25,65535
1778033299.061131,1,326,26,65535
1778033299.061131,1,326,27,65535
1778033299.061131,1,326,28,65535
1778033299.061131,1,326,29,65535
1778033299.061131,1,326,30,65535
1778033299.061131,1,326,31,65535
1778033299.263416,1,327,0,65535
1778033299.263416,1,327,1,65535
1778033299.263416,1,327,2,65535
1778033299.263416,1,327,3,65535
1778033299.263416,1,327,4,65535
1778033299.263416,1,327,5,65535
1778033299.263416,1,327,6,65535
1778033299.263416,1,327,7,65535
1778033299.263416,1,327,8,65535
1778033299.263416,1,327,9,65535
1778033299.263416,1,327,10,65535
1778033299.263416,1,327,11,65535
1778033299.263416,1,327,12,65535
1778033299.263416,1,327,13,65535
1778033299.263416,1,327,14,65535
1778033299.263416,1,327,15,65535
1778033299.263416,1,327,16,65535
1778033299.263416,1,327,17,65535
1778033299.263416,1,327,18,65535
1778033299.263416,1,327,19,65535
1778033299.263416,1,327,20,65535
1778033299.263416,1,327,21,65535
1778033299.263416,1,327,22,65535
1778033299.263416,1,327,23,65535
1778033299.263416,1,327,24,65535
1778033299.263416,1,327,25,65535
1778033299.263416,1,327,26,65535
1778033299.263416,1,327,27,65535
1778033299.263416,1,327,28,65535
1778033299.263416,1,327,29,65535
1778033299.263416,1,327,30,65535
1778033299.263416,1,327,31,65535
1778033299.364321,1,328,0,65535
1778033299.364321,1,328,1,65535
1778033299.364321,1,328,2,65535
1778033299.364321,1,328,3,65535
1778033299.364321,1,328,4,65535
1778033299.364321,1,328,5,65535
1778033299.364321,1,328,6,65535
1778033299.364321,1,328,7,65535
1778033299.364321,1,328,8,65535
1778033299.364321,1,328,9,65535
1778033299.364321,1,328,10,65535
1778033299.364321,1,328,11,65535
1778033299.364321,1,328,12,65535
1778033299.364321,1,328,13,65535
1778033299.364321,1,328,14,65535
1778033299.364321,1,328,15,65535
1778033299.364321,1,328,16,65535
1778033299.364321,1,328,17,65535
1778033299.364321,1,328,18,65535
1778033299.364321,1,328,19,65535
1778033299.364321,1,328,20,65535
1778033299.364321,1,328,21,65535
1778033299.364321,1,328,22,65535
1778033299.364321,1,328,23,65535
1778033299.364321,1,328,24,65535
1778033299.364321,1,328,25,65535
1778033299.364321,1,328,26,65535
1778033299.364321,1,328,27,65535
1778033299.364321,1,328,28,65535
1778033299.364321,1,328,29,65535
1778033299.364321,1,328,30,65535
1778033299.364321,1,328,31,65535
1778033299.465149,1,329,0,65535
1778033299.465149,1,329,1,65535
1778033299.465149,1,329,2,65535
1778033299.465149,1,329,3,65535
1778033299.465149,1,329,4,65535
1778033299.465149,1,329,5,65535
1778033299.465149,1,329,6,65535
1778033299.465149,1,329,7,65535
1778033299.465149,1,329,8,65535
1778033299.465149,1,329,9,65535
1778033299.465149,1,329,10,65535
1778033299.465149,1,329,11,65535
1778033299.465149,1,329,12,65535
1778033299.465149,1,329,13,65535
1778033299.465149,1,329,14,65535
1778033299.465149,1,329,15,65535
1778033299.465149,1,329,16,65535
1778033299.465149,1,329,17,65535
1778033299.465149,1,329,18,65535
1778033299.465149,1,329,19,65535
1778033299.465149,1,329,20,65535
1778033299.465149,1,329,21,65535
1778033299.465149,1,329,22,65535
1778033299.465149,1,329,23,65535
1778033299.465149,1,329,24,65535
1778033299.465149,1,329,25,65535
1778033299.465149,1,329,26,65535
1778033299.465149,1,329,27,65535
1778033299.465149,1,329,28,65535
1778033299.465149,1,329,29,65535
1778033299.465149,1,329,30,65535
1778033299.465149,1,329,31,65535
1778033299.5660548,1,330,0,65535
1778033299.5660548,1,330,1,65535
1778033299.5660548,1,330,2,65535
1778033299.5660548,1,330,3,65535
1778033299.5660548,1,330,4,65535
1778033299.5660548,1,330,5,65535
1778033299.5660548,1,330,6,65535
1778033299.5660548,1,330,7,65535
1778033299.5660548,1,330,8,65535
1778033299.5660548,1,330,9,65535
1778033299.5660548,1,330,10,65535
1778033299.5660548,1,330,11,65535
1778033299.5660548,1,330,12,65535
1778033299.5660548,1,330,13,65535
1778033299.5660548,1,330,14,65535
1778033299.5660548,1,330,15,65535
1778033299.5660548,1,330,16,65535
1778033299.5660548,1,330,17,65535
1778033299.5660548,1,330,18,65535
1778033299.5660548,1,330,19,65535
1778033299.5660548,1,330,20,65535
1778033299.5660548,1,330,21,65535
1778033299.5660548,1,330,22,65535
1778033299.5660548,1,330,23,65535
1778033299.5660548,1,330,24,65535
1778033299.5660548,1,330,25,65535
1778033299.5660548,1,330,26,65535
1778033299.5660548,1,330,27,65535
1778033299.5660548,1,330,28,65535
1778033299.5660548,1,330,29,65535
1778033299.5660548,1,330,30,65535
1778033299.5660548,1,330,31,65535
1778033299.767859,1,331,0,65535
1778033299.767859,1,331,1,65535
1778033299.767859,1,331,2,65535
1778033299.767859,1,331,3,65535
1778033299.767859,1,331,4,65535
1778033299.767859,1,331,5,65535
1778033299.767859,1,331,6,65535
1778033299.767859,1,331,7,65535
1778033299.767859,1,331,8,65535
1778033299.767859,1,331,9,65535
1778033299.767859,1,331,10,65535
1778033299.767859,1,331,11,65535
1778033299.767859,1,331,12,65535
1778033299.767859,1,331,13,65535
1778033299.767859,1,331,14,65535
1778033299.767859,1,331,15,65535
1778033299.767859,1,331,16,65535
1778033299.767859,1,331,17,65535
1778033299.767859,1,331,18,65535
1778033299.767859,1,331,19,65535
1778033299.767859,1,331,20,65535
1778033299.767859,1,331,21,65535
1778033299.767859,1,331,22,65535
1778033299.767859,1,331,23,65535
1778033299.767859,1,331,24,65535
1778033299.767859,1,331,25,65535
1778033299.767859,1,331,26,65535
1778033299.767859,1,331,27,65535
1778033299.767859,1,331,28,65535
1778033299.767859,1,331,29,65535
1778033299.767859,1,331,30,65535
1778033299.767859,1,331,31,65535
1778033299.8690188,1,332,0,65535
1778033299.8690188,1,332,1,65535
1778033299.8690188,1,332,2,65535
1778033299.8690188,1,332,3,65535
1778033299.8690188,1,332,4,65535
1778033299.8690188,1,332,5,65535
1778033299.8690188,1,332,6,65535
1778033299.8690188,1,332,7,65535
1778033299.8690188,1,332,8,65535
1778033299.8690188,1,332,9,65535
1778033299.8690188,1,332,10,65535
1778033299.8690188,1,332,11,65535
1778033299.8690188,1,332,12,65535
1778033299.8690188,1,332,13,65535
1778033299.8690188,1,332,14,65535
1778033299.8690188,1,332,15,65535
1778033299.8690188,1,332,16,65535
1778033299.8690188,1,332,17,65535
1778033299.8690188,1,332,18,65535
1778033299.8690188,1,332,19,65535
1778033299.8690188,1,332,20,65535
1778033299.8690188,1,332,21,65535
1778033299.8690188,1,332,22,65535
1778033299.8690188,1,332,23,65535
1778033299.8690188,1,332,24,65535
1778033299.8690188,1,332,25,65535
1778033299.8690188,1,332,26,65535
1778033299.8690188,1,332,27,65535
1778033299.8690188,1,332,28,65535
1778033299.8690188,1,332,29,65535
1778033299.8690188,1,332,30,65535
1778033299.8690188,1,332,31,65535
1778033299.969895,1,333,0,65535
1778033299.969895,1,333,1,65535
1778033299.969895,1,333,2,65535
1778033299.969895,1,333,3,65535
1778033299.969895,1,333,4,65535
1778033299.969895,1,333,5,65535
1778033299.969895,1,333,6,65535
1778033299.969895,1,333,7,65535
1778033299.969895,1,333,8,65535
1778033299.969895,1,333,9,65535
1778033299.969895,1,333,10,65535
1778033299.969895,1,333,11,65535
1778033299.969895,1,333,12,65535
1778033299.969895,1,333,13,65535
1778033299.969895,1,333,14,65535
1778033299.969895,1,333,15,65535
1778033299.969895,1,333,16,65535
1778033299.969895,1,333,17,65535
1778033299.969895,1,333,18,65535
1778033299.969895,1,333,19,65535
1778033299.969895,1,333,20,65535
1778033299.969895,1,333,21,65535
1778033299.969895,1,333,22,65535
1778033299.969895,1,333,23,65535
1778033299.969895,1,333,24,65535
1778033299.969895,1,333,25,65535
1778033299.969895,1,333,26,65535
1778033299.969895,1,333,27,65535
1778033299.969895,1,333,28,65535
1778033299.969895,1,333,29,65535
1778033299.969895,1,333,30,65535
1778033299.969895,1,333,31,65535
1778033300.077451,1,334,0,65535
1778033300.077451,1,334,1,65535
1778033300.077451,1,334,2,65535
1778033300.077451,1,334,3,65535
1778033300.077451,1,334,4,65535
1778033300.077451,1,334,5,65535
1778033300.077451,1,334,6,65535
1778033300.077451,1,334,7,65535
1778033300.077451,1,334,8,65535
1778033300.077451,1,334,9,65535
1778033300.077451,1,334,10,65535
1778033300.077451,1,334,11,65535
1778033300.077451,1,334,12,65535
1778033300.077451,1,334,13,65535
1778033300.077451,1,334,14,65535
1778033300.077451,1,334,15,65535
1778033300.077451,1,334,16,65535
1778033300.077451,1,334,17,65535
1778033300.077451,1,334,18,65535
1778033300.077451,1,334,19,65535
1778033300.077451,1,334,20,65535
1778033300.077451,1,334,21,65535
1778033300.077451,1,334,22,65535
1778033300.077451,1,334,23,65535
1778033300.077451,1,334,24,65535
1778033300.077451,1,334,25,65535
1778033300.077451,1,334,26,65535
1778033300.077451,1,334,27,65535
1778033300.077451,1,334,28,65535
1778033300.077451,1,334,29,65535
1778033300.077451,1,334,30,65535
1778033300.077451,1,334,31,65535
1778033300.395058,1,335,0,65535
1778033300.395058,1,335,1,65535
1778033300.395058,1,335,2,65535
1778033300.395058,1,335,3,65535
1778033300.395058,1,335,4,65535
1778033300.395058,1,335,5,65535
1778033300.395058,1,335,6,65535
1778033300.395058,1,335,7,65535
1778033300.395058,1,335,8,65535
1778033300.395058,1,335,9,65535
1778033300.395058,1,335,10,65535
1778033300.395058,1,335,11,65535
1778033300.395058,1,335,12,65535
1778033300.395058,1,335,13,65535
1778033300.395058,1,335,14,65535
1778033300.395058,1,335,15,65535
1778033300.395058,1,335,16,65535
1778033300.395058,1,335,17,65535
1778033300.395058,1,335,18,65535
1778033300.395058,1,335,19,65535
1778033300.395058,1,335,20,65535
1778033300.395058,1,335,21,65535
1778033300.395058,1,335,22,65535
1778033300.395058,1,335,23,65535
1778033300.395058,1,335,24,65535
1778033300.395058,1,335,25,65535
1778033300.395058,1,335,26,65535
1778033300.395058,1,335,27,65535
1778033300.395058,1,335,28,65535
1778033300.395058,1,335,29,65535
1778033300.395058,1,335,30,65535
1778033300.395058,1,335,31,65535
1778033300.3952188,1,336,0,65535
1778033300.3952188,1,336,1,65535
1778033300.3952188,1,336,2,65535
1778033300.3952188,1,336,3,65535
1778033300.3952188,1,336,4,65535
1778033300.3952188,1,336,5,65535
1778033300.3952188,1,336,6,65535
1778033300.3952188,1,336,7,65535
1778033300.3952188,1,336,8,65535
1778033300.3952188,1,336,9,65535
1778033300.3952188,1,336,10,65535
1778033300.3952188,1,336,11,65535
1778033300.3952188,1,336,12,65535
1778033300.3952188,1,336,13,65535
1778033300.3952188,1,336,14,65535
1778033300.3952188,1,336,15,65535
1778033300.3952188,1,336,16,65535
1778033300.3952188,1,336,17,65535
1778033300.3952188,1,336,18,65535
1778033300.3952188,1,336,19,65535
1778033300.3952188,1,336,20,65535
1778033300.3952188,1,336,21,65535
1778033300.3952188,1,336,22,65535
1778033300.3952188,1,336,23,65535
1778033300.3952188,1,336,24,65535
1778033300.3952188,1,336,25,65535
1778033300.3952188,1,336,26,65535
1778033300.3952188,1,336,27,65535
1778033300.3952188,1,336,28,65535
1778033300.3952188,1,336,29,65535
1778033300.3952188,1,336,30,65535
1778033300.3952188,1,336,31,65535
1778033300.500494,1,337,0,65535
1778033300.500494,1,337,1,65535
1778033300.500494,1,337,2,65535
1778033300.500494,1,337,3,65535
1778033300.500494,1,337,4,65535
1778033300.500494,1,337,5,65535
1778033300.500494,1,337,6,65535
1778033300.500494,1,337,7,65535
1778033300.500494,1,337,8,65535
1778033300.500494,1,337,9,65535
1778033300.500494,1,337,10,65535
1778033300.500494,1,337,11,65535
1778033300.500494,1,337,12,65535
1778033300.500494,1,337,13,65535
1778033300.500494,1,337,14,65535
1778033300.500494,1,337,15,65535
1778033300.500494,1,337,16,65535
1778033300.500494,1,337,17,65535
1778033300.500494,1,337,18,65535
1778033300.500494,1,337,19,65535
1778033300.500494,1,337,20,65535
1778033300.500494,1,337,21,65535
1778033300.500494,1,337,22,65535
1778033300.500494,1,337,23,65535
1778033300.500494,1,337,24,65535
1778033300.500494,1,337,25,65535
1778033300.500494,1,337,26,65535
1778033300.500494,1,337,27,65535
1778033300.500494,1,337,28,65535
1778033300.500494,1,337,29,65535
1778033300.500494,1,337,30,65535
1778033300.500494,1,337,31,65535
1778033300.602196,1,338,0,65535
1778033300.602196,1,338,1,65535
1778033300.602196,1,338,2,65535
1778033300.602196,1,338,3,65535
1778033300.602196,1,338,4,65535
1778033300.602196,1,338,5,65535
1778033300.602196,1,338,6,65535
1778033300.602196,1,338,7,65535
1778033300.602196,1,338,8,65535
1778033300.602196,1,338,9,65535
1778033300.602196,1,338,10,65535
1778033300.602196,1,338,11,65535
1778033300.602196,1,338,12,65535
1778033300.602196,1,338,13,65535
1778033300.602196,1,338,14,65535
1778033300.602196,1,338,15,65535
1778033300.602196,1,338,16,65535
1778033300.602196,1,338,17,65535
1778033300.602196,1,338,18,65535
1778033300.602196,1,338,19,65535
1778033300.602196,1,338,20,65535
1778033300.602196,1,338,21,65535
1778033300.602196,1,338,22,65535
1778033300.602196,1,338,23,65535
1778033300.602196,1,338,24,65535
1778033300.602196,1,338,25,65535
1778033300.602196,1,338,26,65535
1778033300.602196,1,338,27,65535
1778033300.602196,1,338,28,65535
1778033300.602196,1,338,29,65535
1778033300.602196,1,338,30,65535
1778033300.602196,1,338,31,65535
1778033300.804936,1,339,0,65535
1778033300.804936,1,339,1,65535
1778033300.804936,1,339,2,65535
1778033300.804936,1,339,3,65535
1778033300.804936,1,339,4,65535
1778033300.804936,1,339,5,65535
1778033300.804936,1,339,6,65535
1778033300.804936,1,339,7,65535
1778033300.804936,1,339,8,65535
1778033300.804936,1,339,9,65535
1778033300.804936,1,339,10,65535
1778033300.804936,1,339,11,65535
1778033300.804936,1,339,12,65535
1778033300.804936,1,339,13,65535
1778033300.804936,1,339,14,65535
1778033300.804936,1,339,15,65535
1778033300.804936,1,339,16,65535
1778033300.804936,1,339,17,65535
1778033300.804936,1,339,18,65535
1778033300.804936,1,339,19,65535
1778033300.804936,1,339,20,65535
1778033300.804936,1,339,21,65535
1778033300.804936,1,339,22,65535
1778033300.804936,1,339,23,65535
1778033300.804936,1,339,24,65535
1778033300.804936,1,339,25,65535
1778033300.804936,1,339,26,65535
1778033300.804936,1,339,27,65535
1778033300.804936,1,339,28,65535
1778033300.804936,1,339,29,65535
1778033300.804936,1,339,30,65535
1778033300.804936,1,339,31,65535
1778033300.906802,1,340,0,65535
1778033300.906802,1,340,1,65535
1778033300.906802,1,340,2,65535
1778033300.906802,1,340,3,65535
1778033300.906802,1,340,4,65535
1778033300.906802,1,340,5,65535
1778033300.906802,1,340,6,65535
1778033300.906802,1,340,7,65535
1778033300.906802,1,340,8,65535
1778033300.906802,1,340,9,65535
1778033300.906802,1,340,10,65535
1778033300.906802,1,340,11,65535
1778033300.906802,1,340,12,65535
1778033300.906802,1,340,13,65535
1778033300.906802,1,340,14,65535
1778033300.906802,1,340,15,65535
1778033300.906802,1,340,16,65535
1778033300.906802,1,340,17,65535
1778033300.906802,1,340,18,65535
1778033300.906802,1,340,19,65535
1778033300.906802,1,340,20,65535
1778033300.906802,1,340,21,65535
1778033300.906802,1,340,22,65535
1778033300.906802,1,340,23,65535
1778033300.906802,1,340,24,65535
1778033300.906802,1,340,25,65535
1778033300.906802,1,340,26,65535
1778033300.906802,1,340,27,65535
1778033300.906802,1,340,28,65535
1778033300.906802,1,340,29,65535
1778033300.906802,1,340,30,65535
1778033300.906802,1,340,31,65535
1778033301.0081542,1,341,0,65535
1778033301.0081542,1,341,1,65535
1778033301.0081542,1,341,2,65535
1778033301.0081542,1,341,3,65535
1778033301.0081542,1,341,4,65535
1778033301.0081542,1,341,5,65535
1778033301.0081542,1,341,6,65535
1778033301.0081542,1,341,7,65535
1778033301.0081542,1,341,8,65535
1778033301.0081542,1,341,9,65535
1778033301.0081542,1,341,10,65535
1778033301.0081542,1,341,11,65535
1778033301.0081542,1,341,12,65535
1778033301.0081542,1,341,13,65535
1778033301.0081542,1,341,14,65535
1778033301.0081542,1,341,15,65535
1778033301.0081542,1,341,16,65535
1778033301.0081542,1,341,17,65535
1778033301.0081542,1,341,18,65535
1778033301.0081542,1,341,19,65535
1778033301.0081542,1,341,20,65535
1778033301.0081542,1,341,21,65535
1778033301.0081542,1,341,22,65535
1778033301.0081542,1,341,23,65535
1778033301.0081542,1,341,24,65535
1778033301.0081542,1,341,25,65535
1778033301.0081542,1,341,26,65535
1778033301.0081542,1,341,27,65535
1778033301.0081542,1,341,28,65535
1778033301.0081542,1,341,29,65535
1778033301.0081542,1,341,30,65535
1778033301.0081542,1,341,31,65535
1778033301.1091661,1,342,0,65535
1778033301.1091661,1,342,1,65535
1778033301.1091661,1,342,2,65535
1778033301.1091661,1,342,3,65535
1778033301.1091661,1,342,4,65535
1778033301.1091661,1,342,5,65535
1778033301.1091661,1,342,6,65535
1778033301.1091661,1,342,7,65535
1778033301.1091661,1,342,8,65535
1778033301.1091661,1,342,9,65535
1778033301.1091661,1,342,10,65535
1778033301.1091661,1,342,11,65535
1778033301.1091661,1,342,12,65535
1778033301.1091661,1,342,13,65535
1778033301.1091661,1,342,14,65535
1778033301.1091661,1,342,15,65535
1778033301.1091661,1,342,16,65535
1778033301.1091661,1,342,17,65535
1778033301.1091661,1,342,18,65535
1778033301.1091661,1,342,19,65535
1778033301.1091661,1,342,20,65535
1778033301.1091661,1,342,21,65535
1778033301.1091661,1,342,22,65535
1778033301.1091661,1,342,23,65535
1778033301.1091661,1,342,24,65535
1778033301.1091661,1,342,25,65535
1778033301.1091661,1,342,26,65535
1778033301.1091661,1,342,27,65535
1778033301.1091661,1,342,28,65535
1778033301.1091661,1,342,29,65535
1778033301.1091661,1,342,30,65535
1778033301.1091661,1,342,31,65535
1778033301.311881,1,343,0,65535
1778033301.311881,1,343,1,65535
1778033301.311881,1,343,2,65535
1778033301.311881,1,343,3,65535
1778033301.311881,1,343,4,65535
1778033301.311881,1,343,5,65535
1778033301.311881,1,343,6,65535
1778033301.311881,1,343,7,65535
1778033301.311881,1,343,8,65535
1778033301.311881,1,343,9,65535
1778033301.311881,1,343,10,65535
1778033301.311881,1,343,11,65535
1778033301.311881,1,343,12,65535
1778033301.311881,1,343,13,65535
1778033301.311881,1,343,14,65535
1778033301.311881,1,343,15,65535
1778033301.311881,1,343,16,65535
1778033301.311881,1,343,17,65535
1778033301.311881,1,343,18,65535
1778033301.311881,1,343,19,65535
1778033301.311881,1,343,20,65535
1778033301.311881,1,343,21,65535
1778033301.311881,1,343,22,65535
1778033301.311881,1,343,23,65535
1778033301.311881,1,343,24,65535
1778033301.311881,1,343,25,65535
1778033301.311881,1,343,26,65535
1778033301.311881,1,343,27,65535
1778033301.311881,1,343,28,65535
1778033301.311881,1,343,29,65535
1778033301.311881,1,343,30,65535
1778033301.311881,1,343,31,65535
1778033301.413787,1,344,0,65535
1778033301.413787,1,344,1,65535
1778033301.413787,1,344,2,65535
1778033301.413787,1,344,3,65535
1778033301.413787,1,344,4,65535
1778033301.413787,1,344,5,65535
1778033301.413787,1,344,6,65535
1778033301.413787,1,344,7,65535
1778033301.413787,1,344,8,65535
1778033301.413787,1,344,9,65535
1778033301.413787,1,344,10,65535
1778033301.413787,1,344,11,65535
1778033301.413787,1,344,12,65535
1778033301.413787,1,344,13,65535
1778033301.413787,1,344,14,65535
1778033301.413787,1,344,15,65535
1778033301.413787,1,344,16,65535
1778033301.413787,1,344,17,65535
1778033301.413787,1,344,18,65535
1778033301.413787,1,344,19,65535
1778033301.413787,1,344,20,65535
1778033301.413787,1,344,21,65535
1778033301.413787,1,344,22,65535
1778033301.413787,1,344,23,65535
1778033301.413787,1,344,24,65535
1778033301.413787,1,344,25,65535
1778033301.413787,1,344,26,65535
1778033301.413787,1,344,27,65535
1778033301.413787,1,344,28,65535
1778033301.413787,1,344,29,65535
1778033301.413787,1,344,30,65535
1778033301.413787,1,344,31,65535
1778033301.5155709,1,345,0,65535
1778033301.5155709,1,345,1,65535
1778033301.5155709,1,345,2,65535
1778033301.5155709,1,345,3,65535
1778033301.5155709,1,345,4,65535
1778033301.5155709,1,345,5,65535
1778033301.5155709,1,345,6,65535
1778033301.5155709,1,345,7,65535
1778033301.5155709,1,345,8,65535
1778033301.5155709,1,345,9,65535
1778033301.5155709,1,345,10,65535
1778033301.5155709,1,345,11,65535
1778033301.5155709,1,345,12,65535
1778033301.5155709,1,345,13,65535
1778033301.5155709,1,345,14,65535
1778033301.5155709,1,345,15,65535
1778033301.5155709,1,345,16,65535
1778033301.5155709,1,345,17,65535
1778033301.5155709,1,345,18,65535
1778033301.5155709,1,345,19,65535
1778033301.5155709,1,345,20,65535
1778033301.5155709,1,345,21,65535
1778033301.5155709,1,345,22,65535
1778033301.5155709,1,345,23,65535
1778033301.5155709,1,345,24,65535
1778033301.5155709,1,345,25,65535
1778033301.5155709,1,345,26,65535
1778033301.5155709,1,345,27,65535
1778033301.5155709,1,345,28,65535
1778033301.5155709,1,345,29,65535
1778033301.5155709,1,345,30,65535
1778033301.5155709,1,345,31,65535
1778033301.617363,1,346,0,65535
1778033301.617363,1,346,1,65535
1778033301.617363,1,346,2,65535
1778033301.617363,1,346,3,65535
1778033301.617363,1,346,4,65535
1778033301.617363,1,346,5,65535
1778033301.617363,1,346,6,65535
1778033301.617363,1,346,7,65535
1778033301.617363,1,346,8,65535
1778033301.617363,1,346,9,65535
1778033301.617363,1,346,10,65535
1778033301.617363,1,346,11,65535
1778033301.617363,1,346,12,65535
1778033301.617363,1,346,13,65535
1778033301.617363,1,346,14,65535
1778033301.617363,1,346,15,65535
1778033301.617363,1,346,16,65535
1778033301.617363,1,346,17,65535
1778033301.617363,1,346,18,65535
1778033301.617363,1,346,19,65535
1778033301.617363,1,346,20,65535
1778033301.617363,1,346,21,65535
1778033301.617363,1,346,22,65535
1778033301.617363,1,346,23,65535
1778033301.617363,1,346,24,65535
1778033301.617363,1,346,25,65535
1778033301.617363,1,346,26,65535
1778033301.617363,1,346,27,65535
1778033301.617363,1,346,28,65535
1778033301.617363,1,346,29,65535
1778033301.617363,1,346,30,65535
1778033301.617363,1,346,31,65535
1778033301.821325,1,347,0,65535
1778033301.821325,1,347,1,65535
1778033301.821325,1,347,2,65535
1778033301.821325,1,347,3,65535
1778033301.821325,1,347,4,65535
1778033301.821325,1,347,5,65535
1778033301.821325,1,347,6,65535
1778033301.821325,1,347,7,65535
1778033301.821325,1,347,8,65535
1778033301.821325,1,347,9,65535
1778033301.821325,1,347,10,65535
1778033301.821325,1,347,11,65535
1778033301.821325,1,347,12,65535
1778033301.821325,1,347,13,65535
1778033301.821325,1,347,14,65535
1778033301.821325,1,347,15,65535
1778033301.821325,1,347,16,65535
1778033301.821325,1,347,17,65535
1778033301.821325,1,347,18,65535
1778033301.821325,1,347,19,65535
1778033301.821325,1,347,20,65535
1778033301.821325,1,347,21,65535
1778033301.821325,1,347,22,65535
1778033301.821325,1,347,23,65535
1778033301.821325,1,347,24,65535
1778033301.821325,1,347,25,65535
1778033301.821325,1,347,26,65535
1778033301.821325,1,347,27,65535
1778033301.821325,1,347,28,65535
1778033301.821325,1,347,29,65535
1778033301.821325,1,347,30,65535
1778033301.821325,1,347,31,65535
1778033301.923483,1,348,0,65535
1778033301.923483,1,348,1,65535
1778033301.923483,1,348,2,65535
1778033301.923483,1,348,3,65535
1778033301.923483,1,348,4,65535
1778033301.923483,1,348,5,65535
1778033301.923483,1,348,6,65535
1778033301.923483,1,348,7,65535
1778033301.923483,1,348,8,65535
1778033301.923483,1,348,9,65535
1778033301.923483,1,348,10,65535
1778033301.923483,1,348,11,65535
1778033301.923483,1,348,12,65535
1778033301.923483,1,348,13,65535
1778033301.923483,1,348,14,65535
1778033301.923483,1,348,15,65535
1778033301.923483,1,348,16,65535
1778033301.923483,1,348,17,65535
1778033301.923483,1,348,18,65535
1778033301.923483,1,348,19,65535
1778033301.923483,1,348,20,65535
1778033301.923483,1,348,21,65535
1778033301.923483,1,348,22,65535
1778033301.923483,1,348,23,65535
1778033301.923483,1,348,24,65535
1778033301.923483,1,348,25,65535
1778033301.923483,1,348,26,65535
1778033301.923483,1,348,27,65535
1778033301.923483,1,348,28,65535
1778033301.923483,1,348,29,65535
1778033301.923483,1,348,30,65535
1778033301.923483,1,348,31,65535
1778033302.025493,1,349,0,65535
1778033302.025493,1,349,1,65535
1778033302.025493,1,349,2,65535
1778033302.025493,1,349,3,65535
1778033302.025493,1,349,4,65535
1778033302.025493,1,349,5,65535
1778033302.025493,1,349,6,65535
1778033302.025493,1,349,7,65535
1778033302.025493,1,349,8,65535
1778033302.025493,1,349,9,65535
1778033302.025493,1,349,10,65535
1778033302.025493,1,349,11,65535
1778033302.025493,1,349,12,65535
1778033302.025493,1,349,13,65535
1778033302.025493,1,349,14,65535
1778033302.025493,1,349,15,65535
1778033302.025493,1,349,16,65535
1778033302.025493,1,349,17,65535
1778033302.025493,1,349,18,65535
1778033302.025493,1,349,19,65535
1778033302.025493,1,349,20,65535
1778033302.025493,1,349,21,65535
1778033302.025493,1,349,22,65535
1778033302.025493,1,349,23,65535
1778033302.025493,1,349,24,65535
1778033302.025493,1,349,25,65535
1778033302.025493,1,349,26,65535
1778033302.025493,1,349,27,65535
1778033302.025493,1,349,28,65535
1778033302.025493,1,349,29,65535
1778033302.025493,1,349,30,65535
1778033302.025493,1,349,31,65535
1778033302.126871,1,350,0,65535
1778033302.126871,1,350,1,65535
1778033302.126871,1,350,2,65535
1778033302.126871,1,350,3,65535
1778033302.126871,1,350,4,65535
1778033302.126871,1,350,5,65535
1778033302.126871,1,350,6,65535
1778033302.126871,1,350,7,65535
1778033302.126871,1,350,8,65535
1778033302.126871,1,350,9,65535
1778033302.126871,1,350,10,65535
1778033302.126871,1,350,11,65535
1778033302.126871,1,350,12,65535
1778033302.126871,1,350,13,65535
1778033302.126871,1,350,14,65535
1778033302.126871,1,350,15,65535
1778033302.126871,1,350,16,65535
1778033302.126871,1,350,17,65535
1778033302.126871,1,350,18,65535
1778033302.126871,1,350,19,65535
1778033302.126871,1,350,20,65535
1778033302.126871,1,350,21,65535
1778033302.126871,1,350,22,65535
1778033302.126871,1,350,23,65535
1778033302.126871,1,350,24,65535
1778033302.126871,1,350,25,65535
1778033302.126871,1,350,26,65535
1778033302.126871,1,350,27,65535
1778033302.126871,1,350,28,65535
1778033302.126871,1,350,29,65535
1778033302.126871,1,350,30,65535
1778033302.126871,1,350,31,65535
1778033302.331197,1,351,0,65535
1778033302.331197,1,351,1,65535
1778033302.331197,1,351,2,65535
1778033302.331197,1,351,3,65535
1778033302.331197,1,351,4,65535
1778033302.331197,1,351,5,65535
1778033302.331197,1,351,6,65535
1778033302.331197,1,351,7,65535
1778033302.331197,1,351,8,65535
1778033302.331197,1,351,9,65535
1778033302.331197,1,351,10,65535
1778033302.331197,1,351,11,65535
1778033302.331197,1,351,12,65535
1778033302.331197,1,351,13,65535
1778033302.331197,1,351,14,65535
1778033302.331197,1,351,15,65535
1778033302.331197,1,351,16,65535
1778033302.331197,1,351,17,65535
1778033302.331197,1,351,18,65535
1778033302.331197,1,351,19,65535
1778033302.331197,1,351,20,65535
1778033302.331197,1,351,21,65535
1778033302.331197,1,351,22,65535
1778033302.331197,1,351,23,65535
1778033302.331197,1,351,24,65535
1778033302.331197,1,351,25,65535
1778033302.331197,1,351,26,65535
1778033302.331197,1,351,27,65535
1778033302.331197,1,351,28,65535
1778033302.331197,1,351,29,65535
1778033302.331197,1,351,30,65535
1778033302.331197,1,351,31,65535
1778033302.433013,1,352,0,65535
1778033302.433013,1,352,1,65535
1778033302.433013,1,352,2,65535
1778033302.433013,1,352,3,65535
1778033302.433013,1,352,4,65535
1778033302.433013,1,352,5,65535
1778033302.433013,1,352,6,65535
1778033302.433013,1,352,7,65535
1778033302.433013,1,352,8,65535
1778033302.433013,1,352,9,65535
1778033302.433013,1,352,10,65535
1778033302.433013,1,352,11,65535
1778033302.433013,1,352,12,65535
1778033302.433013,1,352,13,65535
1778033302.433013,1,352,14,65535
1778033302.433013,1,352,15,65535
1778033302.433013,1,352,16,65535
1778033302.433013,1,352,17,65535
1778033302.433013,1,352,18,65535
1778033302.433013,1,352,19,65535
1778033302.433013,1,352,20,65535
1778033302.433013,1,352,21,65535
1778033302.433013,1,352,22,65535
1778033302.433013,1,352,23,65535
1778033302.433013,1,352,24,65535
1778033302.433013,1,352,25,65535
1778033302.433013,1,352,26,65535
1778033302.433013,1,352,27,65535
1778033302.433013,1,352,28,65535
1778033302.433013,1,352,29,65535
1778033302.433013,1,352,30,65535
1778033302.433013,1,352,31,65535
1778033302.5351691,1,353,0,65535
1778033302.5351691,1,353,1,65535
1778033302.5351691,1,353,2,65535
1778033302.5351691,1,353,3,65535
1778033302.5351691,1,353,4,65535
1778033302.5351691,1,353,5,65535
1778033302.5351691,1,353,6,65535
1778033302.5351691,1,353,7,65535
1778033302.5351691,1,353,8,65535
1778033302.5351691,1,353,9,65535
1778033302.5351691,1,353,10,65535
1778033302.5351691,1,353,11,65535
1778033302.5351691,1,353,12,65535
1778033302.5351691,1,353,13,65535
1778033302.5351691,1,353,14,65535
1778033302.5351691,1,353,15,65535
1778033302.5351691,1,353,16,65535
1778033302.5351691,1,353,17,65535
1778033302.5351691,1,353,18,65535
1778033302.5351691,1,353,19,65535
1778033302.5351691,1,353,20,65535
1778033302.5351691,1,353,21,65535
1778033302.5351691,1,353,22,65535
1778033302.5351691,1,353,23,65535
1778033302.5351691,1,353,24,65535
1778033302.5351691,1,353,25,65535
1778033302.5351691,1,353,26,65535
1778033302.5351691,1,353,27,65535
1778033302.5351691,1,353,28,65535
1778033302.5351691,1,353,29,65535
1778033302.5351691,1,353,30,65535
1778033302.5351691,1,353,31,65535
1778033302.637395,1,354,0,65535
1778033302.637395,1,354,1,65535
1778033302.637395,1,354,2,65535
1778033302.637395,1,354,3,65535
1778033302.637395,1,354,4,65535
1778033302.637395,1,354,5,65535
1778033302.637395,1,354,6,65535
1778033302.637395,1,354,7,65535
1778033302.637395,1,354,8,65535
1778033302.637395,1,354,9,65535
1778033302.637395,1,354,10,65535
1778033302.637395,1,354,11,65535
1778033302.637395,1,354,12,65535
1778033302.637395,1,354,13,65535
1778033302.637395,1,354,14,65535
1778033302.637395,1,354,15,65535
1778033302.637395,1,354,16,65535
1778033302.637395,1,354,17,65535
1778033302.637395,1,354,18,65535
1778033302.637395,1,354,19,65535
1778033302.637395,1,354,20,65535
1778033302.637395,1,354,21,65535
1778033302.637395,1,354,22,65535
1778033302.637395,1,354,23,65535
1778033302.637395,1,354,24,65535
1778033302.637395,1,354,25,65535
1778033302.637395,1,354,26,65535
1778033302.637395,1,354,27,65535
1778033302.637395,1,354,28,65535
1778033302.637395,1,354,29,65535
1778033302.637395,1,354,30,65535
1778033302.637395,1,354,31,65535
1778033302.85317,1,355,0,65535
1778033302.85317,1,355,1,65535
1778033302.85317,1,355,2,65535
1778033302.85317,1,355,3,65535
1778033302.85317,1,355,4,65535
1778033302.85317,1,355,5,65535
1778033302.85317,1,355,6,65535
1778033302.85317,1,355,7,65535
1778033302.85317,1,355,8,65535
1778033302.85317,1,355,9,65535
1778033302.85317,1,355,10,65535
1778033302.85317,1,355,11,65535
1778033302.85317,1,355,12,65535
1778033302.85317,1,355,13,65535
1778033302.85317,1,355,14,65535
1778033302.85317,1,355,15,65535
1778033302.85317,1,355,16,65535
1778033302.85317,1,355,17,65535
1778033302.85317,1,355,18,65535
1778033302.85317,1,355,19,65535
1778033302.85317,1,355,20,65535
1778033302.85317,1,355,21,65535
1778033302.85317,1,355,22,65535
1778033302.85317,1,355,23,65535
1778033302.85317,1,355,24,65535
1778033302.85317,1,355,25,65535
1778033302.85317,1,355,26,65535
1778033302.85317,1,355,27,65535
1778033302.85317,1,355,28,65535
1778033302.85317,1,355,29,65535
1778033302.85317,1,355,30,65535
1778033302.85317,1,355,31,65535
1778033302.9556859,1,356,0,65535
1778033302.9556859,1,356,1,65535
1778033302.9556859,1,356,2,65535
1778033302.9556859,1,356,3,65535
1778033302.9556859,1,356,4,65535
1778033302.9556859,1,356,5,65535
1778033302.9556859,1,356,6,65535
1778033302.9556859,1,356,7,65535
1778033302.9556859,1,356,8,65535
1778033302.9556859,1,356,9,65535
1778033302.9556859,1,356,10,65535
1778033302.9556859,1,356,11,65535
1778033302.9556859,1,356,12,65535
1778033302.9556859,1,356,13,65535
1778033302.9556859,1,356,14,65535
1778033302.9556859,1,356,15,65535
1778033302.9556859,1,356,16,65535
1778033302.9556859,1,356,17,65535
1778033302.9556859,1,356,18,65535
1778033302.9556859,1,356,19,65535
1778033302.9556859,1,356,20,65535
1778033302.9556859,1,356,21,65535
1778033302.9556859,1,356,22,65535
1778033302.9556859,1,356,23,65535
1778033302.9556859,1,356,24,65535
1778033302.9556859,1,356,25,65535
1778033302.9556859,1,356,26,65535
1778033302.9556859,1,356,27,65535
1778033302.9556859,1,356,28,65535
1778033302.9556859,1,356,29,65535
1778033302.9556859,1,356,30,65535
1778033302.9556859,1,356,31,65535
1778033303.058048,1,357,0,65535
1778033303.058048,1,357,1,65535
1778033303.058048,1,357,2,65535
1778033303.058048,1,357,3,65535
1778033303.058048,1,357,4,65535
1778033303.058048,1,357,5,65535
1778033303.058048,1,357,6,65535
1778033303.058048,1,357,7,65535
1778033303.058048,1,357,8,65535
1778033303.058048,1,357,9,65535
1778033303.058048,1,357,10,65535
1778033303.058048,1,357,11,65535
1778033303.058048,1,357,12,65535
1778033303.058048,1,357,13,65535
1778033303.058048,1,357,14,65535
1778033303.058048,1,357,15,65535
1778033303.058048,1,357,16,65535
1778033303.058048,1,357,17,65535
1778033303.058048,1,357,18,65535
1778033303.058048,1,357,19,65535
1778033303.058048,1,357,20,65535
1778033303.058048,1,357,21,65535
1778033303.058048,1,357,22,65535
1778033303.058048,1,357,23,65535
1778033303.058048,1,357,24,65535
1778033303.058048,1,357,25,65535
1778033303.058048,1,357,26,65535
1778033303.058048,1,357,27,65535
1778033303.058048,1,357,28,65535
1778033303.058048,1,357,29,65535
1778033303.058048,1,357,30,65535
1778033303.058048,1,357,31,65535
1778033303.364987,1,359,0,65535
1778033303.364987,1,359,1,65535
1778033303.364987,1,359,2,65535
1778033303.364987,1,359,3,65535
1778033303.364987,1,359,4,65535
1778033303.364987,1,359,5,65535
1778033303.364987,1,359,6,65535
1778033303.364987,1,359,7,65535
1778033303.364987,1,359,8,65535
1778033303.364987,1,359,9,65535
1778033303.364987,1,359,10,65535
1778033303.364987,1,359,11,65535
1778033303.364987,1,359,12,65535
1778033303.364987,1,359,13,65535
1778033303.364987,1,359,14,65535
1778033303.364987,1,359,15,65535
1778033303.364987,1,359,16,65535
1778033303.364987,1,359,17,65535
1778033303.364987,1,359,18,65535
1778033303.364987,1,359,19,65535
1778033303.364987,1,359,20,65535
1778033303.364987,1,359,21,65535
1778033303.364987,1,359,22,65535
1778033303.364987,1,359,23,65535
1778033303.364987,1,359,24,65535
1778033303.364987,1,359,25,65535
1778033303.364987,1,359,26,65535
1778033303.364987,1,359,27,65535
1778033303.364987,1,359,28,65535
1778033303.364987,1,359,29,65535
1778033303.364987,1,359,30,65535
1778033303.364987,1,359,31,65535
1778033303.468232,1,360,0,65535
1778033303.468232,1,360,1,65535
1778033303.468232,1,360,2,65535
1778033303.468232,1,360,3,65535
1778033303.468232,1,360,4,65535
1778033303.468232,1,360,5,65535
1778033303.468232,1,360,6,65535
1778033303.468232,1,360,7,65535
1778033303.468232,1,360,8,65535
1778033303.468232,1,360,9,65535
1778033303.468232,1,360,10,65535
1778033303.468232,1,360,11,65535
1778033303.468232,1,360,12,65535
1778033303.468232,1,360,13,65535
1778033303.468232,1,360,14,65535
1778033303.468232,1,360,15,65535
1778033303.468232,1,360,16,65535
1778033303.468232,1,360,17,65535
1778033303.468232,1,360,18,65535
1778033303.468232,1,360,19,65535
1778033303.468232,1,360,20,65535
1778033303.468232,1,360,21,65535
1778033303.468232,1,360,22,65535
1778033303.468232,1,360,23,65535
1778033303.468232,1,360,24,65535
1778033303.468232,1,360,25,65535
1778033303.468232,1,360,26,65535
1778033303.468232,1,360,27,65535
1778033303.468232,1,360,28,65535
1778033303.468232,1,360,29,65535
1778033303.468232,1,360,30,65535
1778033303.468232,1,360,31,65535
1778033303.570661,1,361,0,65535
1778033303.570661,1,361,1,65535
1778033303.570661,1,361,2,65535
1778033303.570661,1,361,3,65535
1778033303.570661,1,361,4,65535
1778033303.570661,1,361,5,65535
1778033303.570661,1,361,6,65535
1778033303.570661,1,361,7,65535
1778033303.570661,1,361,8,65535
1778033303.570661,1,361,9,65535
1778033303.570661,1,361,10,65535
1778033303.570661,1,361,11,65535
1778033303.570661,1,361,12,65535
1778033303.570661,1,361,13,65535
1778033303.570661,1,361,14,65535
1778033303.570661,1,361,15,65535
1778033303.570661,1,361,16,65535
1778033303.570661,1,361,17,65535
1778033303.570661,1,361,18,65535
1778033303.570661,1,361,19,65535
1778033303.570661,1,361,20,65535
1778033303.570661,1,361,21,65535
1778033303.570661,1,361,22,65535
1778033303.570661,1,361,23,65535
1778033303.570661,1,361,24,65535
1778033303.570661,1,361,25,65535
1778033303.570661,1,361,26,65535
1778033303.570661,1,361,27,65535
1778033303.570661,1,361,28,65535
1778033303.570661,1,361,29,65535
1778033303.570661,1,361,30,65535
1778033303.570661,1,361,31,65535
1778033303.673345,1,362,0,65535
1778033303.673345,1,362,1,65535
1778033303.673345,1,362,2,65535
1778033303.673345,1,362,3,65535
1778033303.673345,1,362,4,65535
1778033303.673345,1,362,5,65535
1778033303.673345,1,362,6,65535
1778033303.673345,1,362,7,65535
1778033303.673345,1,362,8,65535
1778033303.673345,1,362,9,65535
1778033303.673345,1,362,10,65535
1778033303.673345,1,362,11,65535
1778033303.673345,1,362,12,65535
1778033303.673345,1,362,13,65535
1778033303.673345,1,362,14,65535
1778033303.673345,1,362,15,65535
1778033303.673345,1,362,16,65535
1778033303.673345,1,362,17,65535
1778033303.673345,1,362,18,65535
1778033303.673345,1,362,19,65535
1778033303.673345,1,362,20,65535
1778033303.673345,1,362,21,65535
1778033303.673345,1,362,22,65535
1778033303.673345,1,362,23,65535
1778033303.673345,1,362,24,65535
1778033303.673345,1,362,25,65535
1778033303.673345,1,362,26,65535
1778033303.673345,1,362,27,65535
1778033303.673345,1,362,28,65535
1778033303.673345,1,362,29,65535
1778033303.673345,1,362,30,65535
1778033303.673345,1,362,31,65535
1778033303.7895732,1,363,0,65535
1778033303.7895732,1,363,1,65535
1778033303.7895732,1,363,2,65535
1778033303.7895732,1,363,3,65535
1778033303.7895732,1,363,4,65535
1778033303.7895732,1,363,5,65535
1778033303.7895732,1,363,6,65535
1778033303.7895732,1,363,7,65535
1778033303.7895732,1,363,8,65535
1778033303.7895732,1,363,9,65535
1778033303.7895732,1,363,10,65535
1778033303.7895732,1,363,11,65535
1778033303.7895732,1,363,12,65535
1778033303.7895732,1,363,13,65535
1778033303.7895732,1,363,14,65535
1778033303.7895732,1,363,15,65535
1778033303.7895732,1,363,16,65535
1778033303.7895732,1,363,17,65535
1778033303.7895732,1,363,18,65535
1778033303.7895732,1,363,19,65535
1778033303.7895732,1,363,20,65535
1778033303.7895732,1,363,21,65535
1778033303.7895732,1,363,22,65535
1778033303.7895732,1,363,23,65535
1778033303.7895732,1,363,24,65535
1778033303.7895732,1,363,25,65535
1778033303.7895732,1,363,26,65535
1778033303.7895732,1,363,27,65535
1778033303.7895732,1,363,28,65535
1778033303.7895732,1,363,29,65535
1778033303.7895732,1,363,30,65535
1778033303.7895732,1,363,31,65535
1778033303.9924228,1,364,0,65535
1778033303.9924228,1,364,1,65535
1778033303.9924228,1,364,2,65535
1778033303.9924228,1,364,3,65535
1778033303.9924228,1,364,4,65535
1778033303.9924228,1,364,5,65535
1778033303.9924228,1,364,6,65535
1778033303.9924228,1,364,7,65535
1778033303.9924228,1,364,8,65535
1778033303.9924228,1,364,9,65535
1778033303.9924228,1,364,10,65535
1778033303.9924228,1,364,11,65535
1778033303.9924228,1,364,12,65535
1778033303.9924228,1,364,13,65535
1778033303.9924228,1,364,14,65535
1778033303.9924228,1,364,15,65535
1778033303.9924228,1,364,16,65535
1778033303.9924228,1,364,17,65535
1778033303.9924228,1,364,18,65535
1778033303.9924228,1,364,19,65535
1778033303.9924228,1,364,20,65535
1778033303.9924228,1,364,21,65535
1778033303.9924228,1,364,22,65535
1778033303.9924228,1,364,23,65535
1778033303.9924228,1,364,24,65535
1778033303.9924228,1,364,25,65535
1778033303.9924228,1,364,26,65535
1778033303.9924228,1,364,27,65535
1778033303.9924228,1,364,28,65535
1778033303.9924228,1,364,29,65535
1778033303.9924228,1,364,30,65535
1778033303.9924228,1,364,31,65535
1778033304.095683,1,365,0,65535
1778033304.095683,1,365,1,65535
1778033304.095683,1,365,2,65535
1778033304.095683,1,365,3,65535
1778033304.095683,1,365,4,65535
1778033304.095683,1,365,5,65535
1778033304.095683,1,365,6,65535
1778033304.095683,1,365,7,65535
1778033304.095683,1,365,8,65535
1778033304.095683,1,365,9,65535
1778033304.095683,1,365,10,65535
1778033304.095683,1,365,11,65535
1778033304.095683,1,365,12,65535
1778033304.095683,1,365,13,65535
1778033304.095683,1,365,14,65535
1778033304.095683,1,365,15,65535
1778033304.095683,1,365,16,65535
1778033304.095683,1,365,17,65535
1778033304.095683,1,365,18,65535
1778033304.095683,1,365,19,65535
1778033304.095683,1,365,20,65535
1778033304.095683,1,365,21,65535
1778033304.095683,1,365,22,65535
1778033304.095683,1,365,23,65535
1778033304.095683,1,365,24,65535
1778033304.095683,1,365,25,65535
1778033304.095683,1,365,26,65535
1778033304.095683,1,365,27,65535
1778033304.095683,1,365,28,65535
1778033304.095683,1,365,29,65535
1778033304.095683,1,365,30,65535
1778033304.095683,1,365,31,65535
1778033304.198414,1,366,0,65535
1778033304.198414,1,366,1,65535
1778033304.198414,1,366,2,65535
1778033304.198414,1,366,3,65535
1778033304.198414,1,366,4,65535
1778033304.198414,1,366,5,65535
1778033304.198414,1,366,6,65535
1778033304.198414,1,366,7,65535
1778033304.198414,1,366,8,65535
1778033304.198414,1,366,9,65535
1778033304.198414,1,366,10,65535
1778033304.198414,1,366,11,65535
1778033304.198414,1,366,12,65535
1778033304.198414,1,366,13,65535
1778033304.198414,1,366,14,65535
1778033304.198414,1,366,15,65535
1778033304.198414,1,366,16,65535
1778033304.198414,1,366,17,65535
1778033304.198414,1,366,18,65535
1778033304.198414,1,366,19,65535
1778033304.198414,1,366,20,65535
1778033304.198414,1,366,21,65535
1778033304.198414,1,366,22,65535
1778033304.198414,1,366,23,65535
1778033304.198414,1,366,24,65535
1778033304.198414,1,366,25,65535
1778033304.198414,1,366,26,65535
1778033304.198414,1,366,27,65535
1778033304.198414,1,366,28,65535
1778033304.198414,1,366,29,65535
1778033304.198414,1,366,30,65535
1778033304.198414,1,366,31,65535
1778033304.3023272,1,367,0,65535
1778033304.3023272,1,367,1,65535
1778033304.3023272,1,367,2,65535
1778033304.3023272,1,367,3,65535
1778033304.3023272,1,367,4,65535
1778033304.3023272,1,367,5,65535
1778033304.3023272,1,367,6,65535
1778033304.3023272,1,367,7,65535
1778033304.3023272,1,367,8,65535
1778033304.3023272,1,367,9,65535
1778033304.3023272,1,367,10,65535
1778033304.3023272,1,367,11,65535
1778033304.3023272,1,367,12,65535
1778033304.3023272,1,367,13,65535
1778033304.3023272,1,367,14,65535
1778033304.3023272,1,367,15,65535
1778033304.3023272,1,367,16,65535
1778033304.3023272,1,367,17,65535
1778033304.3023272,1,367,18,65535
1778033304.3023272,1,367,19,65535
1778033304.3023272,1,367,20,65535
1778033304.3023272,1,367,21,65535
1778033304.3023272,1,367,22,65535
1778033304.3023272,1,367,23,65535
1778033304.3023272,1,367,24,65535
1778033304.3023272,1,367,25,65535
1778033304.3023272,1,367,26,65535
1778033304.3023272,1,367,27,65535
1778033304.3023272,1,367,28,65535
1778033304.3023272,1,367,29,65535
1778033304.3023272,1,367,30,65535
1778033304.3023272,1,367,31,65535
1778033304.506402,1,368,0,65535
1778033304.506402,1,368,1,65535
1778033304.506402,1,368,2,65535
1778033304.506402,1,368,3,65535
1778033304.506402,1,368,4,65535
1778033304.506402,1,368,5,65535
1778033304.506402,1,368,6,65535
1778033304.506402,1,368,7,65535
1778033304.506402,1,368,8,65535
1778033304.506402,1,368,9,65535
1778033304.506402,1,368,10,65535
1778033304.506402,1,368,11,65535
1778033304.506402,1,368,12,65535
1778033304.506402,1,368,13,65535
1778033304.506402,1,368,14,65535
1778033304.506402,1,368,15,65535
1778033304.506402,1,368,16,65535
1778033304.506402,1,368,17,65535
1778033304.506402,1,368,18,65535
1778033304.506402,1,368,19,65535
1778033304.506402,1,368,20,65535
1778033304.506402,1,368,21,65535
1778033304.506402,1,368,22,65535
1778033304.506402,1,368,23,65535
1778033304.506402,1,368,24,65535
1778033304.506402,1,368,25,65535
1778033304.506402,1,368,26,65535
1778033304.506402,1,368,27,65535
1778033304.506402,1,368,28,65535
1778033304.506402,1,368,29,65535
1778033304.506402,1,368,30,65535
1778033304.506402,1,368,31,65535
1778033304.609895,1,369,0,65535
1778033304.609895,1,369,1,65535
1778033304.609895,1,369,2,65535
1778033304.609895,1,369,3,65535
1778033304.609895,1,369,4,65535
1778033304.609895,1,369,5,65535
1778033304.609895,1,369,6,65535
1778033304.609895,1,369,7,65535
1778033304.609895,1,369,8,65535
1778033304.609895,1,369,9,65535
1778033304.609895,1,369,10,65535
1778033304.609895,1,369,11,65535
1778033304.609895,1,369,12,65535
1778033304.609895,1,369,13,65535
1778033304.609895,1,369,14,65535
1778033304.609895,1,369,15,65535
1778033304.609895,1,369,16,65535
1778033304.609895,1,369,17,65535
1778033304.609895,1,369,18,65535
1778033304.609895,1,369,19,65535
1778033304.609895,1,369,20,65535
1778033304.609895,1,369,21,65535
1778033304.609895,1,369,22,65535
1778033304.609895,1,369,23,65535
1778033304.609895,1,369,24,65535
1778033304.609895,1,369,25,65535
1778033304.609895,1,369,26,65535
1778033304.609895,1,369,27,65535
1778033304.609895,1,369,28,65535
1778033304.609895,1,369,29,65535
1778033304.609895,1,369,30,65535
1778033304.609895,1,369,31,65535
1778033304.71281,1,370,0,65535
1778033304.71281,1,370,1,65535
1778033304.71281,1,370,2,65535
1778033304.71281,1,370,3,65535
1778033304.71281,1,370,4,65535
1778033304.71281,1,370,5,65535
1778033304.71281,1,370,6,65535
1778033304.71281,1,370,7,65535
1778033304.71281,1,370,8,65535
1778033304.71281,1,370,9,65535
1778033304.71281,1,370,10,65535
1778033304.71281,1,370,11,65535
1778033304.71281,1,370,12,65535
1778033304.71281,1,370,13,65535
1778033304.71281,1,370,14,65535
1778033304.71281,1,370,15,65535
1778033304.71281,1,370,16,65535
1778033304.71281,1,370,17,65535
1778033304.71281,1,370,18,65535
1778033304.71281,1,370,19,65535
1778033304.71281,1,370,20,65535
1778033304.71281,1,370,21,65535
1778033304.71281,1,370,22,65535
1778033304.71281,1,370,23,65535
1778033304.71281,1,370,24,65535
1778033304.71281,1,370,25,65535
1778033304.71281,1,370,26,65535
1778033304.71281,1,370,27,65535
1778033304.71281,1,370,28,65535
1778033304.71281,1,370,29,65535
1778033304.71281,1,370,30,65535
1778033304.71281,1,370,31,65535
1778033304.829715,1,371,0,65535
1778033304.829715,1,371,1,65535
1778033304.829715,1,371,2,65535
1778033304.829715,1,371,3,65535
1778033304.829715,1,371,4,65535
1778033304.829715,1,371,5,65535
1778033304.829715,1,371,6,65535
1778033304.829715,1,371,7,65535
1778033304.829715,1,371,8,65535
1778033304.829715,1,371,9,65535
1778033304.829715,1,371,10,65535
1778033304.829715,1,371,11,65535
1778033304.829715,1,371,12,65535
1778033304.829715,1,371,13,65535
1778033304.829715,1,371,14,65535
1778033304.829715,1,371,15,65535
1778033304.829715,1,371,16,65535
1778033304.829715,1,371,17,65535
1778033304.829715,1,371,18,65535
1778033304.829715,1,371,19,65535
1778033304.829715,1,371,20,65535
1778033304.829715,1,371,21,65535
1778033304.829715,1,371,22,65535
1778033304.829715,1,371,23,65535
1778033304.829715,1,371,24,65535
1778033304.829715,1,371,25,65535
1778033304.829715,1,371,26,65535
1778033304.829715,1,371,27,65535
1778033304.829715,1,371,28,65535
1778033304.829715,1,371,29,65535
1778033304.829715,1,371,30,65535
1778033304.829715,1,371,31,65535
1778033304.933912,1,372,0,65535
1778033304.933912,1,372,1,65535
1778033304.933912,1,372,2,65535
1778033304.933912,1,372,3,65535
1778033304.933912,1,372,4,65535
1778033304.933912,1,372,5,65535
1778033304.933912,1,372,6,65535
1778033304.933912,1,372,7,65535
1778033304.933912,1,372,8,65535
1778033304.933912,1,372,9,65535
1778033304.933912,1,372,10,65535
1778033304.933912,1,372,11,65535
1778033304.933912,1,372,12,65535
1778033304.933912,1,372,13,65535
1778033304.933912,1,372,14,65535
1778033304.933912,1,372,15,65535
1778033304.933912,1,372,16,65535
1778033304.933912,1,372,17,65535
1778033304.933912,1,372,18,65535
1778033304.933912,1,372,19,65535
1778033304.933912,1,372,20,65535
1778033304.933912,1,372,21,65535
1778033304.933912,1,372,22,65535
1778033304.933912,1,372,23,65535
1778033304.933912,1,372,24,65535
1778033304.933912,1,372,25,65535
1778033304.933912,1,372,26,65535
1778033304.933912,1,372,27,65535
1778033304.933912,1,372,28,65535
1778033304.933912,1,372,29,65535
1778033304.933912,1,372,30,65535
1778033304.933912,1,372,31,65535
1778033305.1396182,1,373,0,65535
1778033305.1396182,1,373,1,65535
1778033305.1396182,1,373,2,65535
1778033305.1396182,1,373,3,65535
1778033305.1396182,1,373,4,65535
1778033305.1396182,1,373,5,65535
1778033305.1396182,1,373,6,65535
1778033305.1396182,1,373,7,65535
1778033305.1396182,1,373,8,65535
1778033305.1396182,1,373,9,65535
1778033305.1396182,1,373,10,65535
1778033305.1396182,1,373,11,65535
1778033305.1396182,1,373,12,65535
1778033305.1396182,1,373,13,65535
1778033305.1396182,1,373,14,65535
1778033305.1396182,1,373,15,65535
1778033305.1396182,1,373,16,65535
1778033305.1396182,1,373,17,65535
1778033305.1396182,1,373,18,65535
1778033305.1396182,1,373,19,65535
1778033305.1396182,1,373,20,65535
1778033305.1396182,1,373,21,65535
1778033305.1396182,1,373,22,65535
1778033305.1396182,1,373,23,65535
1778033305.1396182,1,373,24,65535
1778033305.1396182,1,373,25,65535
1778033305.1396182,1,373,26,65535
1778033305.1396182,1,373,27,65535
1778033305.1396182,1,373,28,65535
1778033305.1396182,1,373,29,65535
1778033305.1396182,1,373,30,65535
1778033305.1396182,1,373,31,65535
1778033305.250993,1,374,0,65535
1778033305.250993,1,374,1,65535
1778033305.250993,1,374,2,65535
1778033305.250993,1,374,3,65535
1778033305.250993,1,374,4,65535
1778033305.250993,1,374,5,65535
1778033305.250993,1,374,6,65535
1778033305.250993,1,374,7,65535
1778033305.250993,1,374,8,65535
1778033305.250993,1,374,9,65535
1778033305.250993,1,374,10,65535
1778033305.250993,1,374,11,65535
1778033305.250993,1,374,12,65535
1778033305.250993,1,374,13,65535
1778033305.250993,1,374,14,65535
1778033305.250993,1,374,15,65535
1778033305.250993,1,374,16,65535
1778033305.250993,1,374,17,65535
1778033305.250993,1,374,18,65535
1778033305.250993,1,374,19,65535
1778033305.250993,1,374,20,65535
1778033305.250993,1,374,21,65535
1778033305.250993,1,374,22,65535
1778033305.250993,1,374,23,65535
1778033305.250993,1,374,24,65535
1778033305.250993,1,374,25,65535
1778033305.250993,1,374,26,65535
1778033305.250993,1,374,27,65535
1778033305.250993,1,374,28,65535
1778033305.250993,1,374,29,65535
1778033305.250993,1,374,30,65535
1778033305.250993,1,374,31,65535
1778033305.355607,1,375,0,65535
1778033305.355607,1,375,1,65535
1778033305.355607,1,375,2,65535
1778033305.355607,1,375,3,65535
1778033305.355607,1,375,4,65535
1778033305.355607,1,375,5,65535
1778033305.355607,1,375,6,65535
1778033305.355607,1,375,7,65535
1778033305.355607,1,375,8,65535
1778033305.355607,1,375,9,65535
1778033305.355607,1,375,10,65535
1778033305.355607,1,375,11,65535
1778033305.355607,1,375,12,65535
1778033305.355607,1,375,13,65535
1778033305.355607,1,375,14,65535
1778033305.355607,1,375,15,65535
1778033305.355607,1,375,16,65535
1778033305.355607,1,375,17,65535
1778033305.355607,1,375,18,65535
1778033305.355607,1,375,19,65535
1778033305.355607,1,375,20,65535
1778033305.355607,1,375,21,65535
1778033305.355607,1,375,22,65535
1778033305.355607,1,375,23,65535
1778033305.355607,1,375,24,65535
1778033305.355607,1,375,25,65535
1778033305.355607,1,375,26,65535
1778033305.355607,1,375,27,65535
1778033305.355607,1,375,28,65535
1778033305.355607,1,375,29,65535
1778033305.355607,1,375,30,65535
1778033305.355607,1,375,31,65535
1778033305.460146,1,376,0,65535
1778033305.460146,1,376,1,65535
1778033305.460146,1,376,2,65535
1778033305.460146,1,376,3,65535
1778033305.460146,1,376,4,65535
1778033305.460146,1,376,5,65535
1778033305.460146,1,376,6,65535
1778033305.460146,1,376,7,65535
1778033305.460146,1,376,8,65535
1778033305.460146,1,376,9,65535
1778033305.460146,1,376,10,65535
1778033305.460146,1,376,11,65535
1778033305.460146,1,376,12,65535
1778033305.460146,1,376,13,65535
1778033305.460146,1,376,14,65535
1778033305.460146,1,376,15,65535
1778033305.460146,1,376,16,65535
1778033305.460146,1,376,17,65535
1778033305.460146,1,376,18,65535
1778033305.460146,1,376,19,65535
1778033305.460146,1,376,20,65535
1778033305.460146,1,376,21,65535
1778033305.460146,1,376,22,65535
1778033305.460146,1,376,23,65535
1778033305.460146,1,376,24,65535
1778033305.460146,1,376,25,65535
1778033305.460146,1,376,26,65535
1778033305.460146,1,376,27,65535
1778033305.460146,1,376,28,65535
1778033305.460146,1,376,29,65535
1778033305.460146,1,376,30,65535
1778033305.460146,1,376,31,65535
1778033305.666008,1,377,0,65535
1778033305.666008,1,377,1,65535
1778033305.666008,1,377,2,65535
1778033305.666008,1,377,3,65535
1778033305.666008,1,377,4,65535
1778033305.666008,1,377,5,65535
1778033305.666008,1,377,6,65535
1778033305.666008,1,377,7,65535
1778033305.666008,1,377,8,65535
1778033305.666008,1,377,9,65535
1778033305.666008,1,377,10,65535
1778033305.666008,1,377,11,65535
1778033305.666008,1,377,12,65535
1778033305.666008,1,377,13,65535
1778033305.666008,1,377,14,65535
1778033305.666008,1,377,15,65535
1778033305.666008,1,377,16,65535
1778033305.666008,1,377,17,65535
1778033305.666008,1,377,18,65535
1778033305.666008,1,377,19,65535
1778033305.666008,1,377,20,65535
1778033305.666008,1,377,21,65535
1778033305.666008,1,377,22,65535
1778033305.666008,1,377,23,65535
1778033305.666008,1,377,24,65535
1778033305.666008,1,377,25,65535
1778033305.666008,1,377,26,65535
1778033305.666008,1,377,27,65535
1778033305.666008,1,377,28,65535
1778033305.666008,1,377,29,65535
1778033305.666008,1,377,30,65535
1778033305.666008,1,377,31,65535
1778033305.777489,1,378,0,65535
1778033305.777489,1,378,1,65535
1778033305.777489,1,378,2,65535
1778033305.777489,1,378,3,65535
1778033305.777489,1,378,4,65535
1778033305.777489,1,378,5,65535
1778033305.777489,1,378,6,65535
1778033305.777489,1,378,7,65535
1778033305.777489,1,378,8,65535
1778033305.777489,1,378,9,65535
1778033305.777489,1,378,10,65535
1778033305.777489,1,378,11,65535
1778033305.777489,1,378,12,65535
1778033305.777489,1,378,13,65535
1778033305.777489,1,378,14,65535
1778033305.777489,1,378,15,65535
1778033305.777489,1,378,16,65535
1778033305.777489,1,378,17,65535
1778033305.777489,1,378,18,65535
1778033305.777489,1,378,19,65535
1778033305.777489,1,378,20,65535
1778033305.777489,1,378,21,65535
1778033305.777489,1,378,22,65535
1778033305.777489,1,378,23,65535
1778033305.777489,1,378,24,65535
1778033305.777489,1,378,25,65535
1778033305.777489,1,378,26,65535
1778033305.777489,1,378,27,65535
1778033305.777489,1,378,28,65535
1778033305.777489,1,378,29,65535
1778033305.777489,1,378,30,65535
1778033305.777489,1,378,31,65535
1778033305.8820622,1,379,0,65535
1778033305.8820622,1,379,1,65535
1778033305.8820622,1,379,2,65535
1778033305.8820622,1,379,3,65535
1778033305.8820622,1,379,4,65535
1778033305.8820622,1,379,5,65535
1778033305.8820622,1,379,6,65535
1778033305.8820622,1,379,7,65535
1778033305.8820622,1,379,8,65535
1778033305.8820622,1,379,9,65535
1778033305.8820622,1,379,10,65535
1778033305.8820622,1,379,11,65535
1778033305.8820622,1,379,12,65535
1778033305.8820622,1,379,13,65535
1778033305.8820622,1,379,14,65535
1778033305.8820622,1,379,15,65535
1778033305.8820622,1,379,16,65535
1778033305.8820622,1,379,17,65535
1778033305.8820622,1,379,18,65535
1778033305.8820622,1,379,19,65535
1778033305.8820622,1,379,20,65535
1778033305.8820622,1,379,21,65535
1778033305.8820622,1,379,22,65535
1778033305.8820622,1,379,23,65535
1778033305.8820622,1,379,24,65535
1778033305.8820622,1,379,25,65535
1778033305.8820622,1,379,26,65535
1778033305.8820622,1,379,27,65535
1778033305.8820622,1,379,28,65535
1778033305.8820622,1,379,29,65535
1778033305.8820622,1,379,30,65535
1778033305.8820622,1,379,31,65535
1778033305.986162,1,380,0,65535
1778033305.986162,1,380,1,65535
1778033305.986162,1,380,2,65535
1778033305.986162,1,380,3,65535
1778033305.986162,1,380,4,65535
1778033305.986162,1,380,5,65535
1778033305.986162,1,380,6,65535
1778033305.986162,1,380,7,65535
1778033305.986162,1,380,8,65535
1778033305.986162,1,380,9,65535
1778033305.986162,1,380,10,65535
1778033305.986162,1,380,11,65535
1778033305.986162,1,380,12,65535
1778033305.986162,1,380,13,65535
1778033305.986162,1,380,14,65535
1778033305.986162,1,380,15,65535
1778033305.986162,1,380,16,65535
1778033305.986162,1,380,17,65535
1778033305.986162,1,380,18,65535
1778033305.986162,1,380,19,65535
1778033305.986162,1,380,20,65535
1778033305.986162,1,380,21,65535
1778033305.986162,1,380,22,65535
1778033305.986162,1,380,23,65535
1778033305.986162,1,380,24,65535
1778033305.986162,1,380,25,65535
1778033305.986162,1,380,26,65535
1778033305.986162,1,380,27,65535
1778033305.986162,1,380,28,65535
1778033305.986162,1,380,29,65535
1778033305.986162,1,380,30,65535
1778033305.986162,1,380,31,65535
1778033306.090894,1,381,0,65535
1778033306.090894,1,381,1,65535
1778033306.090894,1,381,2,65535
1778033306.090894,1,381,3,65535
1778033306.090894,1,381,4,65535
1778033306.090894,1,381,5,65535
1778033306.090894,1,381,6,65535
1778033306.090894,1,381,7,65535
1778033306.090894,1,381,8,65535
1778033306.090894,1,381,9,65535
1778033306.090894,1,381,10,65535
1778033306.090894,1,381,11,65535
1778033306.090894,1,381,12,65535
1778033306.090894,1,381,13,65535
1778033306.090894,1,381,14,65535
1778033306.090894,1,381,15,65535
1778033306.090894,1,381,16,65535
1778033306.090894,1,381,17,65535
1778033306.090894,1,381,18,65535
1778033306.090894,1,381,19,65535
1778033306.090894,1,381,20,65535
1778033306.090894,1,381,21,65535
1778033306.090894,1,381,22,65535
1778033306.090894,1,381,23,65535
1778033306.090894,1,381,24,65535
1778033306.090894,1,381,25,65535
1778033306.090894,1,381,26,65535
1778033306.090894,1,381,27,65535
1778033306.090894,1,381,28,65535
1778033306.090894,1,381,29,65535
1778033306.090894,1,381,30,65535
1778033306.090894,1,381,31,65535
1778033306.299666,1,382,0,65535
1778033306.299666,1,382,1,65535
1778033306.299666,1,382,2,65535
1778033306.299666,1,382,3,65535
1778033306.299666,1,382,4,65535
1778033306.299666,1,382,5,65535
1778033306.299666,1,382,6,65535
1778033306.299666,1,382,7,65535
1778033306.299666,1,382,8,65535
1778033306.299666,1,382,9,65535
1778033306.299666,1,382,10,65535
1778033306.299666,1,382,11,65535
1778033306.299666,1,382,12,65535
1778033306.299666,1,382,13,65535
1778033306.299666,1,382,14,65535
1778033306.299666,1,382,15,65535
1778033306.299666,1,382,16,65535
1778033306.299666,1,382,17,65535
1778033306.299666,1,382,18,65535
1778033306.299666,1,382,19,65535
1778033306.299666,1,382,20,65535
1778033306.299666,1,382,21,65535
1778033306.299666,1,382,22,65535
1778033306.299666,1,382,23,65535
1778033306.299666,1,382,24,65535
1778033306.299666,1,382,25,65535
1778033306.299666,1,382,26,65535
1778033306.299666,1,382,27,65535
1778033306.299666,1,382,28,65535
1778033306.299666,1,382,29,65535
1778033306.299666,1,382,30,65535
1778033306.299666,1,382,31,65535
1778033306.4043362,1,383,0,65535
1778033306.4043362,1,383,1,65535
1778033306.4043362,1,383,2,65535
1778033306.4043362,1,383,3,65535
1778033306.4043362,1,383,4,65535
1778033306.4043362,1,383,5,65535
1778033306.4043362,1,383,6,65535
1778033306.4043362,1,383,7,65535
1778033306.4043362,1,383,8,65535
1778033306.4043362,1,383,9,65535
1778033306.4043362,1,383,10,65535
1778033306.4043362,1,383,11,65535
1778033306.4043362,1,383,12,65535
1778033306.4043362,1,383,13,65535
1778033306.4043362,1,383,14,65535
1778033306.4043362,1,383,15,65535
1778033306.4043362,1,383,16,65535
1778033306.4043362,1,383,17,65535
1778033306.4043362,1,383,18,65535
1778033306.4043362,1,383,19,65535
1778033306.4043362,1,383,20,65535
1778033306.4043362,1,383,21,65535
1778033306.4043362,1,383,22,65535
1778033306.4043362,1,383,23,65535
1778033306.4043362,1,383,24,65535
1778033306.4043362,1,383,25,65535
1778033306.4043362,1,383,26,65535
1778033306.4043362,1,383,27,65535
1778033306.4043362,1,383,28,65535
1778033306.4043362,1,383,29,65535
1778033306.4043362,1,383,30,65535
1778033306.4043362,1,383,31,65535
1778033306.5090282,1,384,0,65535
1778033306.5090282,1,384,1,65535
1778033306.5090282,1,384,2,65535
1778033306.5090282,1,384,3,65535
1778033306.5090282,1,384,4,65535
1778033306.5090282,1,384,5,65535
1778033306.5090282,1,384,6,65535
1778033306.5090282,1,384,7,65535
1778033306.5090282,1,384,8,65535
1778033306.5090282,1,384,9,65535
1778033306.5090282,1,384,10,65535
1778033306.5090282,1,384,11,65535
1778033306.5090282,1,384,12,65535
1778033306.5090282,1,384,13,65535
1778033306.5090282,1,384,14,65535
1778033306.5090282,1,384,15,65535
1778033306.5090282,1,384,16,65535
1778033306.5090282,1,384,17,65535
1778033306.5090282,1,384,18,65535
1778033306.5090282,1,384,19,65535
1778033306.5090282,1,384,20,65535
1778033306.5090282,1,384,21,65535
1778033306.5090282,1,384,22,65535
1778033306.5090282,1,384,23,65535
1778033306.5090282,1,384,24,65535
1778033306.5090282,1,384,25,65535
1778033306.5090282,1,384,26,65535
1778033306.5090282,1,384,27,65535
1778033306.5090282,1,384,28,65535
1778033306.5090282,1,384,29,65535
1778033306.5090282,1,384,30,65535
1778033306.5090282,1,384,31,65535
1778033306.6136582,1,385,0,65535
1778033306.6136582,1,385,1,65535
1778033306.6136582,1,385,2,65535
1778033306.6136582,1,385,3,65535
1778033306.6136582,1,385,4,65535
1778033306.6136582,1,385,5,65535
1778033306.6136582,1,385,6,65535
1778033306.6136582,1,385,7,65535
1778033306.6136582,1,385,8,65535
1778033306.6136582,1,385,9,65535
1778033306.6136582,1,385,10,65535
1778033306.6136582,1,385,11,65535
1778033306.6136582,1,385,12,65535
1778033306.6136582,1,385,13,65535
1778033306.6136582,1,385,14,65535
1778033306.6136582,1,385,15,65535
1778033306.6136582,1,385,16,65535
1778033306.6136582,1,385,17,65535
1778033306.6136582,1,385,18,65535
1778033306.6136582,1,385,19,65535
1778033306.6136582,1,385,20,65535
1778033306.6136582,1,385,21,65535
1778033306.6136582,1,385,22,65535
1778033306.6136582,1,385,23,65535
1778033306.6136582,1,385,24,65535
1778033306.6136582,1,385,25,65535
1778033306.6136582,1,385,26,65535
1778033306.6136582,1,385,27,65535
1778033306.6136582,1,385,28,65535
1778033306.6136582,1,385,29,65535
1778033306.6136582,1,385,30,65535
1778033306.6136582,1,385,31,65535
1778033306.825429,1,386,0,65535
1778033306.825429,1,386,1,65535
1778033306.825429,1,386,2,65535
1778033306.825429,1,386,3,65535
1778033306.825429,1,386,4,65535
1778033306.825429,1,386,5,65535
1778033306.825429,1,386,6,65535
1778033306.825429,1,386,7,65535
1778033306.825429,1,386,8,65535
1778033306.825429,1,386,9,65535
1778033306.825429,1,386,10,65535
1778033306.825429,1,386,11,65535
1778033306.825429,1,386,12,65535
1778033306.825429,1,386,13,65535
1778033306.825429,1,386,14,65535
1778033306.825429,1,386,15,65535
1778033306.825429,1,386,16,65535
1778033306.825429,1,386,17,65535
1778033306.825429,1,386,18,65535
1778033306.825429,1,386,19,65535
1778033306.825429,1,386,20,65535
1778033306.825429,1,386,21,65535
1778033306.825429,1,386,22,65535
1778033306.825429,1,386,23,65535
1778033306.825429,1,386,24,65535
1778033306.825429,1,386,25,65535
1778033306.825429,1,386,26,65535
1778033306.825429,1,386,27,65535
1778033306.825429,1,386,28,65535
1778033306.825429,1,386,29,65535
1778033306.825429,1,386,30,65535
1778033306.825429,1,386,31,65535
1778033306.926927,1,387,0,65535
1778033306.926927,1,387,1,65535
1778033306.926927,1,387,2,65535
1778033306.926927,1,387,3,65535
1778033306.926927,1,387,4,65535
1778033306.926927,1,387,5,65535
1778033306.926927,1,387,6,65535
1778033306.926927,1,387,7,65535
1778033306.926927,1,387,8,65535
1778033306.926927,1,387,9,65535
1778033306.926927,1,387,10,65535
1778033306.926927,1,387,11,65535
1778033306.926927,1,387,12,65535
1778033306.926927,1,387,13,65535
1778033306.926927,1,387,14,65535
1778033306.926927,1,387,15,65535
1778033306.926927,1,387,16,65535
1778033306.926927,1,387,17,65535
1778033306.926927,1,387,18,65535
1778033306.926927,1,387,19,65535
1778033306.926927,1,387,20,65535
1778033306.926927,1,387,21,65535
1778033306.926927,1,387,22,65535
1778033306.926927,1,387,23,65535
1778033306.926927,1,387,24,65535
1778033306.926927,1,387,25,65535
1778033306.926927,1,387,26,65535
1778033306.926927,1,387,27,65535
1778033306.926927,1,387,28,65535
1778033306.926927,1,387,29,65535
1778033306.926927,1,387,30,65535
1778033306.926927,1,387,31,65535
1778033307.0324328,1,388,0,65535
1778033307.0324328,1,388,1,65535
1778033307.0324328,1,388,2,65535
1778033307.0324328,1,388,3,65535
1778033307.0324328,1,388,4,65535
1778033307.0324328,1,388,5,65535
1778033307.0324328,1,388,6,65535
1778033307.0324328,1,388,7,65535
1778033307.0324328,1,388,8,65535
1778033307.0324328,1,388,9,65535
1778033307.0324328,1,388,10,65535
1778033307.0324328,1,388,11,65535
1778033307.0324328,1,388,12,65535
1778033307.0324328,1,388,13,65535
1778033307.0324328,1,388,14,65535
1778033307.0324328,1,388,15,65535
1778033307.0324328,1,388,16,65535
1778033307.0324328,1,388,17,65535
1778033307.0324328,1,388,18,65535
1778033307.0324328,1,388,19,65535
1778033307.0324328,1,388,20,65535
1778033307.0324328,1,388,21,65535
1778033307.0324328,1,388,22,65535
1778033307.0324328,1,388,23,65535
1778033307.0324328,1,388,24,65535
1778033307.0324328,1,388,25,65535
1778033307.0324328,1,388,26,65535
1778033307.0324328,1,388,27,65535
1778033307.0324328,1,388,28,65535
1778033307.0324328,1,388,29,65535
1778033307.0324328,1,388,30,65535
1778033307.0324328,1,388,31,65535
1778033307.137085,1,389,0,65535
1778033307.137085,1,389,1,65535
1778033307.137085,1,389,2,65535
1778033307.137085,1,389,3,65535
1778033307.137085,1,389,4,65535
1778033307.137085,1,389,5,65535
1778033307.137085,1,389,6,65535
1778033307.137085,1,389,7,65535
1778033307.137085,1,389,8,65535
1778033307.137085,1,389,9,65535
1778033307.137085,1,389,10,65535
1778033307.137085,1,389,11,65535
1778033307.137085,1,389,12,65535
1778033307.137085,1,389,13,65535
1778033307.137085,1,389,14,65535
1778033307.137085,1,389,15,65535
1778033307.137085,1,389,16,65535
1778033307.137085,1,389,17,65535
1778033307.137085,1,389,18,65535
1778033307.137085,1,389,19,65535
1778033307.137085,1,389,20,65535
1778033307.137085,1,389,21,65535
1778033307.137085,1,389,22,65535
1778033307.137085,1,389,23,65535
1778033307.137085,1,389,24,65535
1778033307.137085,1,389,25,65535
1778033307.137085,1,389,26,65535
1778033307.137085,1,389,27,65535
1778033307.137085,1,389,28,65535
1778033307.137085,1,389,29,65535
1778033307.137085,1,389,30,65535
1778033307.137085,1,389,31,65535
1778033307.244371,1,390,0,65535
1778033307.244371,1,390,1,65535
1778033307.244371,1,390,2,65535
1778033307.244371,1,390,3,65535
1778033307.244371,1,390,4,65535
1778033307.244371,1,390,5,65535
1778033307.244371,1,390,6,65535
1778033307.244371,1,390,7,65535
1778033307.244371,1,390,8,65535
1778033307.244371,1,390,9,65535
1778033307.244371,1,390,10,65535
1778033307.244371,1,390,11,65535
1778033307.244371,1,390,12,65535
1778033307.244371,1,390,13,65535
1778033307.244371,1,390,14,65535
1778033307.244371,1,390,15,65535
1778033307.244371,1,390,16,65535
1778033307.244371,1,390,17,65535
1778033307.244371,1,390,18,65535
1778033307.244371,1,390,19,65535
1778033307.244371,1,390,20,65535
1778033307.244371,1,390,21,65535
1778033307.244371,1,390,22,65535
1778033307.244371,1,390,23,65535
1778033307.244371,1,390,24,65535
1778033307.244371,1,390,25,65535
1778033307.244371,1,390,26,65535
1778033307.244371,1,390,27,65535
1778033307.244371,1,390,28,65535
1778033307.244371,1,390,29,65535
1778033307.244371,1,390,30,65535
1778033307.244371,1,390,31,65535
1778033307.449698,1,391,0,65535
1778033307.449698,1,391,1,65535
1778033307.449698,1,391,2,65535
1778033307.449698,1,391,3,65535
1778033307.449698,1,391,4,65535
1778033307.449698,1,391,5,65535
1778033307.449698,1,391,6,65535
1778033307.449698,1,391,7,65535
1778033307.449698,1,391,8,65535
1778033307.449698,1,391,9,65535
1778033307.449698,1,391,10,65535
1778033307.449698,1,391,11,65535
1778033307.449698,1,391,12,65535
1778033307.449698,1,391,13,65535
1778033307.449698,1,391,14,65535
1778033307.449698,1,391,15,65535
1778033307.449698,1,391,16,65535
1778033307.449698,1,391,17,65535
1778033307.449698,1,391,18,65535
1778033307.449698,1,391,19,65535
1778033307.449698,1,391,20,65535
1778033307.449698,1,391,21,65535
1778033307.449698,1,391,22,65535
1778033307.449698,1,391,23,65535
1778033307.449698,1,391,24,65535
1778033307.449698,1,391,25,65535
1778033307.449698,1,391,26,65535
1778033307.449698,1,391,27,65535
1778033307.449698,1,391,28,65535
1778033307.449698,1,391,29,65535
1778033307.449698,1,391,30,65535
1778033307.449698,1,391,31,65535
1778033307.556194,1,392,0,65535
1778033307.556194,1,392,1,65535
1778033307.556194,1,392,2,65535
1778033307.556194,1,392,3,65535
1778033307.556194,1,392,4,65535
1778033307.556194,1,392,5,65535
1778033307.556194,1,392,6,65535
1778033307.556194,1,392,7,65535
1778033307.556194,1,392,8,65535
1778033307.556194,1,392,9,65535
1778033307.556194,1,392,10,65535
1778033307.556194,1,392,11,65535
1778033307.556194,1,392,12,65535
1778033307.556194,1,392,13,65535
1778033307.556194,1,392,14,65535
1778033307.556194,1,392,15,65535
1778033307.556194,1,392,16,65535
1778033307.556194,1,392,17,65535
1778033307.556194,1,392,18,65535
1778033307.556194,1,392,19,65535
1778033307.556194,1,392,20,65535
1778033307.556194,1,392,21,65535
1778033307.556194,1,392,22,65535
1778033307.556194,1,392,23,65535
1778033307.556194,1,392,24,65535
1778033307.556194,1,392,25,65535
1778033307.556194,1,392,26,65535
1778033307.556194,1,392,27,65535
1778033307.556194,1,392,28,65535
1778033307.556194,1,392,29,65535
1778033307.556194,1,392,30,65535
1778033307.556194,1,392,31,65535
1778033307.660745,1,393,0,65535
1778033307.660745,1,393,1,65535
1778033307.660745,1,393,2,65535
1778033307.660745,1,393,3,65535
1778033307.660745,1,393,4,65535
1778033307.660745,1,393,5,65535
1778033307.660745,1,393,6,65535
1778033307.660745,1,393,7,65535
1778033307.660745,1,393,8,65535
1778033307.660745,1,393,9,65535
1778033307.660745,1,393,10,65535
1778033307.660745,1,393,11,65535
1778033307.660745,1,393,12,65535
1778033307.660745,1,393,13,65535
1778033307.660745,1,393,14,65535
1778033307.660745,1,393,15,65535
1778033307.660745,1,393,16,65535
1778033307.660745,1,393,17,65535
1778033307.660745,1,393,18,65535
1778033307.660745,1,393,19,65535
1778033307.660745,1,393,20,65535
1778033307.660745,1,393,21,65535
1778033307.660745,1,393,22,65535
1778033307.660745,1,393,23,65535
1778033307.660745,1,393,24,65535
1778033307.660745,1,393,25,65535
1778033307.660745,1,393,26,65535
1778033307.660745,1,393,27,65535
1778033307.660745,1,393,28,65535
1778033307.660745,1,393,29,65535
1778033307.660745,1,393,30,65535
1778033307.660745,1,393,31,65535
1778033307.768739,1,394,0,65535
1778033307.768739,1,394,1,65535
1778033307.768739,1,394,2,65535
1778033307.768739,1,394,3,65535
1778033307.768739,1,394,4,65535
1778033307.768739,1,394,5,65535
1778033307.768739,1,394,6,65535
1778033307.768739,1,394,7,65535
1778033307.768739,1,394,8,65535
1778033307.768739,1,394,9,65535
1778033307.768739,1,394,10,65535
1778033307.768739,1,394,11,65535
1778033307.768739,1,394,12,65535
1778033307.768739,1,394,13,65535
1778033307.768739,1,394,14,65535
1778033307.768739,1,394,15,65535
1778033307.768739,1,394,16,65535
1778033307.768739,1,394,17,65535
1778033307.768739,1,394,18,65535
1778033307.768739,1,394,19,65535
1778033307.768739,1,394,20,65535
1778033307.768739,1,394,21,65535
1778033307.768739,1,394,22,65535
1778033307.768739,1,394,23,65535
1778033307.768739,1,394,24,65535
1778033307.768739,1,394,25,65535
1778033307.768739,1,394,26,65535
1778033307.768739,1,394,27,65535
1778033307.768739,1,394,28,65535
1778033307.768739,1,394,29,65535
1778033307.768739,1,394,30,65535
1778033307.768739,1,394,31,65535
1778033307.8730419,1,395,0,65535
1778033307.8730419,1,395,1,65535
1778033307.8730419,1,395,2,65535
1778033307.8730419,1,395,3,65535
1778033307.8730419,1,395,4,65535
1778033307.8730419,1,395,5,65535
1778033307.8730419,1,395,6,65535
1778033307.8730419,1,395,7,65535
1778033307.8730419,1,395,8,65535
1778033307.8730419,1,395,9,65535
1778033307.8730419,1,395,10,65535
1778033307.8730419,1,395,11,65535
1778033307.8730419,1,395,12,65535
1778033307.8730419,1,395,13,65535
1778033307.8730419,1,395,14,65535
1778033307.8730419,1,395,15,65535
1778033307.8730419,1,395,16,65535
1778033307.8730419,1,395,17,65535
1778033307.8730419,1,395,18,65535
1778033307.8730419,1,395,19,65535
1778033307.8730419,1,395,20,65535
1778033307.8730419,1,395,21,65535
1778033307.8730419,1,395,22,65535
1778033307.8730419,1,395,23,65535
1778033307.8730419,1,395,24,65535
1778033307.8730419,1,395,25,65535
1778033307.8730419,1,395,26,65535
1778033307.8730419,1,395,27,65535
1778033307.8730419,1,395,28,65535
1778033307.8730419,1,395,29,65535
1778033307.8730419,1,395,30,65535
1778033307.8730419,1,395,31,65535
1778033308.078851,1,396,0,65535
1778033308.078851,1,396,1,65535
1778033308.078851,1,396,2,65535
1778033308.078851,1,396,3,65535
1778033308.078851,1,396,4,65535
1778033308.078851,1,396,5,65535
1778033308.078851,1,396,6,65535
1778033308.078851,1,396,7,65535
1778033308.078851,1,396,8,65535
1778033308.078851,1,396,9,65535
1778033308.078851,1,396,10,65535
1778033308.078851,1,396,11,65535
1778033308.078851,1,396,12,65535
1778033308.078851,1,396,13,65535
1778033308.078851,1,396,14,65535
1778033308.078851,1,396,15,65535
1778033308.078851,1,396,16,65535
1778033308.078851,1,396,17,65535
1778033308.078851,1,396,18,65535
1778033308.078851,1,396,19,65535
1778033308.078851,1,396,20,65535
1778033308.078851,1,396,21,65535
1778033308.078851,1,396,22,65535
1778033308.078851,1,396,23,65535
1778033308.078851,1,396,24,65535
1778033308.078851,1,396,25,65535
1778033308.078851,1,396,26,65535
1778033308.078851,1,396,27,65535
1778033308.078851,1,396,28,65535
1778033308.078851,1,396,29,65535
1778033308.078851,1,396,30,65535
1778033308.078851,1,396,31,65535
1778033308.18535,1,397,0,65535
1778033308.18535,1,397,1,65535
1778033308.18535,1,397,2,65535
1778033308.18535,1,397,3,65535
1778033308.18535,1,397,4,65535
1778033308.18535,1,397,5,65535
1778033308.18535,1,397,6,65535
1778033308.18535,1,397,7,65535
1778033308.18535,1,397,8,65535
1778033308.18535,1,397,9,65535
1778033308.18535,1,397,10,65535
1778033308.18535,1,397,11,65535
1778033308.18535,1,397,12,65535
1778033308.18535,1,397,13,65535
1778033308.18535,1,397,14,65535
1778033308.18535,1,397,15,65535
1778033308.18535,1,397,16,65535
1778033308.18535,1,397,17,65535
1778033308.18535,1,397,18,65535
1778033308.18535,1,397,19,65535
1778033308.18535,1,397,20,65535
1778033308.18535,1,397,21,65535
1778033308.18535,1,397,22,65535
1778033308.18535,1,397,23,65535
1778033308.18535,1,397,24,65535
1778033308.18535,1,397,25,65535
1778033308.18535,1,397,26,65535
1778033308.18535,1,397,27,65535
1778033308.18535,1,397,28,65535
1778033308.18535,1,397,29,65535
1778033308.18535,1,397,30,65535
1778033308.18535,1,397,31,65535
1778033308.292767,1,398,0,65535
1778033308.292767,1,398,1,65535
1778033308.292767,1,398,2,65535
1778033308.292767,1,398,3,65535
1778033308.292767,1,398,4,65535
1778033308.292767,1,398,5,65535
1778033308.292767,1,398,6,65535
1778033308.292767,1,398,7,65535
1778033308.292767,1,398,8,65535
1778033308.292767,1,398,9,65535
1778033308.292767,1,398,10,65535
1778033308.292767,1,398,11,65535
1778033308.292767,1,398,12,65535
1778033308.292767,1,398,13,65535
1778033308.292767,1,398,14,65535
1778033308.292767,1,398,15,65535
1778033308.292767,1,398,16,65535
1778033308.292767,1,398,17,65535
1778033308.292767,1,398,18,65535
1778033308.292767,1,398,19,65535
1778033308.292767,1,398,20,65535
1778033308.292767,1,398,21,65535
1778033308.292767,1,398,22,65535
1778033308.292767,1,398,23,65535
1778033308.292767,1,398,24,65535
1778033308.292767,1,398,25,65535
1778033308.292767,1,398,26,65535
1778033308.292767,1,398,27,65535
1778033308.292767,1,398,28,65535
1778033308.292767,1,398,29,65535
1778033308.292767,1,398,30,65535
1778033308.292767,1,398,31,65535
1778033308.397436,1,399,0,65535
1778033308.397436,1,399,1,65535
1778033308.397436,1,399,2,65535
1778033308.397436,1,399,3,65535
1778033308.397436,1,399,4,65535
1778033308.397436,1,399,5,65535
1778033308.397436,1,399,6,65535
1778033308.397436,1,399,7,65535
1778033308.397436,1,399,8,65535
1778033308.397436,1,399,9,65535
1778033308.397436,1,399,10,65535
1778033308.397436,1,399,11,65535
1778033308.397436,1,399,12,65535
1778033308.397436,1,399,13,65535
1778033308.397436,1,399,14,65535
1778033308.397436,1,399,15,65535
1778033308.397436,1,399,16,65535
1778033308.397436,1,399,17,65535
1778033308.397436,1,399,18,65535
1778033308.397436,1,399,19,65535
1778033308.397436,1,399,20,65535
1778033308.397436,1,399,21,65535
1778033308.397436,1,399,22,65535
1778033308.397436,1,399,23,65535
1778033308.397436,1,399,24,65535
1778033308.397436,1,399,25,65535
1778033308.397436,1,399,26,65535
1778033308.397436,1,399,27,65535
1778033308.397436,1,399,28,65535
1778033308.397436,1,399,29,65535
1778033308.397436,1,399,30,65535
1778033308.397436,1,399,31,65535
1778033308.602627,1,400,0,65535
1778033308.602627,1,400,1,65535
1778033308.602627,1,400,2,65535
1778033308.602627,1,400,3,65535
1778033308.602627,1,400,4,65535
1778033308.602627,1,400,5,65535
1778033308.602627,1,400,6,65535
1778033308.602627,1,400,7,65535
1778033308.602627,1,400,8,65535
1778033308.602627,1,400,9,65535
1778033308.602627,1,400,10,65535
1778033308.602627,1,400,11,65535
1778033308.602627,1,400,12,65535
1778033308.602627,1,400,13,65535
1778033308.602627,1,400,14,65535
1778033308.602627,1,400,15,65535
1778033308.602627,1,400,16,65535
1778033308.602627,1,400,17,65535
1778033308.602627,1,400,18,65535
1778033308.602627,1,400,19,65535
1778033308.602627,1,400,20,65535
1778033308.602627,1,400,21,65535
1778033308.602627,1,400,22,65535
1778033308.602627,1,400,23,65535
1778033308.602627,1,400,24,65535
1778033308.602627,1,400,25,65535
1778033308.602627,1,400,26,65535
1778033308.602627,1,400,27,65535
1778033308.602627,1,400,28,65535
1778033308.602627,1,400,29,65535
1778033308.602627,1,400,30,65535
1778033308.602627,1,400,31,65535
1778033308.7082791,1,401,0,65535
1778033308.7082791,1,401,1,65535
1778033308.7082791,1,401,2,65535
1778033308.7082791,1,401,3,65535
1778033308.7082791,1,401,4,65535
1778033308.7082791,1,401,5,65535
1778033308.7082791,1,401,6,65535
1778033308.7082791,1,401,7,65535
1778033308.7082791,1,401,8,65535
1778033308.7082791,1,401,9,65535
1778033308.7082791,1,401,10,65535
1778033308.7082791,1,401,11,65535
1778033308.7082791,1,401,12,65535
1778033308.7082791,1,401,13,65535
1778033308.7082791,1,401,14,65535
1778033308.7082791,1,401,15,65535
1778033308.7082791,1,401,16,65535
1778033308.7082791,1,401,17,65535
1778033308.7082791,1,401,18,65535
1778033308.7082791,1,401,19,65535
1778033308.7082791,1,401,20,65535
1778033308.7082791,1,401,21,65535
1778033308.7082791,1,401,22,65535
1778033308.7082791,1,401,23,65535
1778033308.7082791,1,401,24,65535
1778033308.7082791,1,401,25,65535
1778033308.7082791,1,401,26,65535
1778033308.7082791,1,401,27,65535
1778033308.7082791,1,401,28,65535
1778033308.7082791,1,401,29,65535
1778033308.7082791,1,401,30,65535
1778033308.7082791,1,401,31,65535
1778033308.829052,1,402,0,65535
1778033308.829052,1,402,1,65535
1778033308.829052,1,402,2,65535
1778033308.829052,1,402,3,65535
1778033308.829052,1,402,4,65535
1778033308.829052,1,402,5,65535
1778033308.829052,1,402,6,65535
1778033308.829052,1,402,7,65535
1778033308.829052,1,402,8,65535
1778033308.829052,1,402,9,65535
1778033308.829052,1,402,10,65535
1778033308.829052,1,402,11,65535
1778033308.829052,1,402,12,65535
1778033308.829052,1,402,13,65535
1778033308.829052,1,402,14,65535
1778033308.829052,1,402,15,65535
1778033308.829052,1,402,16,65535
1778033308.829052,1,402,17,65535
1778033308.829052,1,402,18,65535
1778033308.829052,1,402,19,65535
1778033308.829052,1,402,20,65535
1778033308.829052,1,402,21,65535
1778033308.829052,1,402,22,65535
1778033308.829052,1,402,23,65535
1778033308.829052,1,402,24,65535
1778033308.829052,1,402,25,65535
1778033308.829052,1,402,26,65535
1778033308.829052,1,402,27,65535
1778033308.829052,1,402,28,65535
1778033308.829052,1,402,29,65535
1778033308.829052,1,402,30,65535
1778033308.829052,1,402,31,65535
1778033308.933443,1,403,0,65535
1778033308.933443,1,403,1,65535
1778033308.933443,1,403,2,65535
1778033308.933443,1,403,3,65535
1778033308.933443,1,403,4,65535
1778033308.933443,1,403,5,65535
1778033308.933443,1,403,6,65535
1778033308.933443,1,403,7,65535
1778033308.933443,1,403,8,65535
1778033308.933443,1,403,9,65535
1778033308.933443,1,403,10,65535
1778033308.933443,1,403,11,65535
1778033308.933443,1,403,12,65535
1778033308.933443,1,403,13,65535
1778033308.933443,1,403,14,65535
1778033308.933443,1,403,15,65535
1778033308.933443,1,403,16,65535
1778033308.933443,1,403,17,65535
1778033308.933443,1,403,18,65535
1778033308.933443,1,403,19,65535
1778033308.933443,1,403,20,65535
1778033308.933443,1,403,21,65535
1778033308.933443,1,403,22,65535
1778033308.933443,1,403,23,65535
1778033308.933443,1,403,24,65535
1778033308.933443,1,403,25,65535
1778033308.933443,1,403,26,65535
1778033308.933443,1,403,27,65535
1778033308.933443,1,403,28,65535
1778033308.933443,1,403,29,65535
1778033308.933443,1,403,30,65535
1778033308.933443,1,403,31,65535
1778033309.038066,1,404,0,65535
1778033309.038066,1,404,1,65535
1778033309.038066,1,404,2,65535
1778033309.038066,1,404,3,65535
1778033309.038066,1,404,4,65535
1778033309.038066,1,404,5,65535
1778033309.038066,1,404,6,65535
1778033309.038066,1,404,7,65535
1778033309.038066,1,404,8,65535
1778033309.038066,1,404,9,65535
1778033309.038066,1,404,10,65535
1778033309.038066,1,404,11,65535
1778033309.038066,1,404,12,65535
1778033309.038066,1,404,13,65535
1778033309.038066,1,404,14,65535
1778033309.038066,1,404,15,65535
1778033309.038066,1,404,16,65535
1778033309.038066,1,404,17,65535
1778033309.038066,1,404,18,65535
1778033309.038066,1,404,19,65535
1778033309.038066,1,404,20,65535
1778033309.038066,1,404,21,65535
1778033309.038066,1,404,22,65535
1778033309.038066,1,404,23,65535
1778033309.038066,1,404,24,65535
1778033309.038066,1,404,25,65535
1778033309.038066,1,404,26,65535
1778033309.038066,1,404,27,65535
1778033309.038066,1,404,28,65535
1778033309.038066,1,404,29,65535
1778033309.038066,1,404,30,65535
1778033309.038066,1,404,31,65535
1778033309.252222,1,405,0,65535
1778033309.252222,1,405,1,65535
1778033309.252222,1,405,2,65535
1778033309.252222,1,405,3,65535
1778033309.252222,1,405,4,65535
1778033309.252222,1,405,5,65535
1778033309.252222,1,405,6,65535
1778033309.252222,1,405,7,65535
1778033309.252222,1,405,8,65535
1778033309.252222,1,405,9,65535
1778033309.252222,1,405,10,65535
1778033309.252222,1,405,11,65535
1778033309.252222,1,405,12,65535
1778033309.252222,1,405,13,65535
1778033309.252222,1,405,14,65535
1778033309.252222,1,405,15,65535
1778033309.252222,1,405,16,65535
1778033309.252222,1,405,17,65535
1778033309.252222,1,405,18,65535
1778033309.252222,1,405,19,65535
1778033309.252222,1,405,20,65535
1778033309.252222,1,405,21,65535
1778033309.252222,1,405,22,65535
1778033309.252222,1,405,23,65535
1778033309.252222,1,405,24,65535
1778033309.252222,1,405,25,65535
1778033309.252222,1,405,26,65535
1778033309.252222,1,405,27,65535
1778033309.252222,1,405,28,65535
1778033309.252222,1,405,29,65535
1778033309.252222,1,405,30,65535
1778033309.252222,1,405,31,65535
1778033309.356405,1,406,0,65535
1778033309.356405,1,406,1,65535
1778033309.356405,1,406,2,65535
1778033309.356405,1,406,3,65535
1778033309.356405,1,406,4,65535
1778033309.356405,1,406,5,65535
1778033309.356405,1,406,6,65535
1778033309.356405,1,406,7,65535
1778033309.356405,1,406,8,65535
1778033309.356405,1,406,9,65535
1778033309.356405,1,406,10,65535
1778033309.356405,1,406,11,65535
1778033309.356405,1,406,12,65535
1778033309.356405,1,406,13,65535
1778033309.356405,1,406,14,65535
1778033309.356405,1,406,15,65535
1778033309.356405,1,406,16,65535
1778033309.356405,1,406,17,65535
1778033309.356405,1,406,18,65535
1778033309.356405,1,406,19,65535
1778033309.356405,1,406,20,65535
1778033309.356405,1,406,21,65535
1778033309.356405,1,406,22,65535
1778033309.356405,1,406,23,65535
1778033309.356405,1,406,24,65535
1778033309.356405,1,406,25,65535
1778033309.356405,1,406,26,65535
1778033309.356405,1,406,27,65535
1778033309.356405,1,406,28,65535
1778033309.356405,1,406,29,65535
1778033309.356405,1,406,30,65535
1778033309.356405,1,406,31,65535
1778033309.460053,1,407,0,65535
1778033309.460053,1,407,1,65535
1778033309.460053,1,407,2,65535
1778033309.460053,1,407,3,65535
1778033309.460053,1,407,4,65535
1778033309.460053,1,407,5,65535
1778033309.460053,1,407,6,65535
1778033309.460053,1,407,7,65535
1778033309.460053,1,407,8,65535
1778033309.460053,1,407,9,65535
1778033309.460053,1,407,10,65535
1778033309.460053,1,407,11,65535
1778033309.460053,1,407,12,65535
1778033309.460053,1,407,13,65535
1778033309.460053,1,407,14,65535
1778033309.460053,1,407,15,65535
1778033309.460053,1,407,16,65535
1778033309.460053,1,407,17,65535
1778033309.460053,1,407,18,65535
1778033309.460053,1,407,19,65535
1778033309.460053,1,407,20,65535
1778033309.460053,1,407,21,65535
1778033309.460053,1,407,22,65535
1778033309.460053,1,407,23,65535
1778033309.460053,1,407,24,65535
1778033309.460053,1,407,25,65535
1778033309.460053,1,407,26,65535
1778033309.460053,1,407,27,65535
1778033309.460053,1,407,28,65535
1778033309.460053,1,407,29,65535
1778033309.460053,1,407,30,65535
1778033309.460053,1,407,31,65535
1778033309.564805,1,408,0,65535
1778033309.564805,1,408,1,65535
1778033309.564805,1,408,2,65535
1778033309.564805,1,408,3,65535
1778033309.564805,1,408,4,65535
1778033309.564805,1,408,5,65535
1778033309.564805,1,408,6,65535
1778033309.564805,1,408,7,65535
1778033309.564805,1,408,8,65535
1778033309.564805,1,408,9,65535
1778033309.564805,1,408,10,65535
1778033309.564805,1,408,11,65535
1778033309.564805,1,408,12,65535
1778033309.564805,1,408,13,65535
1778033309.564805,1,408,14,65535
1778033309.564805,1,408,15,65535
1778033309.564805,1,408,16,65535
1778033309.564805,1,408,17,65535
1778033309.564805,1,408,18,65535
1778033309.564805,1,408,19,65535
1778033309.564805,1,408,20,65535
1778033309.564805,1,408,21,65535
1778033309.564805,1,408,22,65535
1778033309.564805,1,408,23,65535
1778033309.564805,1,408,24,65535
1778033309.564805,1,408,25,65535
1778033309.564805,1,408,26,65535
1778033309.564805,1,408,27,65535
1778033309.564805,1,408,28,65535
1778033309.564805,1,408,29,65535
1778033309.564805,1,408,30,65535
1778033309.564805,1,408,31,65535
1778033309.6696599,1,409,0,65535
1778033309.6696599,1,409,1,65535
1778033309.6696599,1,409,2,65535
1778033309.6696599,1,409,3,65535
1778033309.6696599,1,409,4,65535
1778033309.6696599,1,409,5,65535
1778033309.6696599,1,409,6,65535
1778033309.6696599,1,409,7,65535
1778033309.6696599,1,409,8,65535
1778033309.6696599,1,409,9,65535
1778033309.6696599,1,409,10,65535
1778033309.6696599,1,409,11,65535
1778033309.6696599,1,409,12,65535
1778033309.6696599,1,409,13,65535
1778033309.6696599,1,409,14,65535
1778033309.6696599,1,409,15,65535
1778033309.6696599,1,409,16,65535
1778033309.6696599,1,409,17,65535
1778033309.6696599,1,409,18,65535
1778033309.6696599,1,409,19,65535
1778033309.6696599,1,409,20,65535
1778033309.6696599,1,409,21,65535
1778033309.6696599,1,409,22,65535
1778033309.6696599,1,409,23,65535
1778033309.6696599,1,409,24,65535
1778033309.6696599,1,409,25,65535
1778033309.6696599,1,409,26,65535
1778033309.6696599,1,409,27,65535
1778033309.6696599,1,409,28,65535
1778033309.6696599,1,409,29,65535
1778033309.6696599,1,409,30,65535
1778033309.6696599,1,409,31,65535
1778033309.878152,1,410,0,65535
1778033309.878152,1,410,1,65535
1778033309.878152,1,410,2,65535
1778033309.878152,1,410,3,65535
1778033309.878152,1,410,4,65535
1778033309.878152,1,410,5,65535
1778033309.878152,1,410,6,65535
1778033309.878152,1,410,7,65535
1778033309.878152,1,410,8,65535
1778033309.878152,1,410,9,65535
1778033309.878152,1,410,10,65535
1778033309.878152,1,410,11,65535
1778033309.878152,1,410,12,65535
1778033309.878152,1,410,13,65535
1778033309.878152,1,410,14,65535
1778033309.878152,1,410,15,65535
1778033309.878152,1,410,16,65535
1778033309.878152,1,410,17,65535
1778033309.878152,1,410,18,65535
1778033309.878152,1,410,19,65535
1778033309.878152,1,410,20,65535
1778033309.878152,1,410,21,65535
1778033309.878152,1,410,22,65535
1778033309.878152,1,410,23,65535
1778033309.878152,1,410,24,65535
1778033309.878152,1,410,25,65535
1778033309.878152,1,410,26,65535
1778033309.878152,1,410,27,65535
1778033309.878152,1,410,28,65535
1778033309.878152,1,410,29,65535
1778033309.878152,1,410,30,65535
1778033309.878152,1,410,31,65535
1778033309.984707,1,411,0,65535
1778033309.984707,1,411,1,65535
1778033309.984707,1,411,2,65535
1778033309.984707,1,411,3,65535
1778033309.984707,1,411,4,65535
1778033309.984707,1,411,5,65535
1778033309.984707,1,411,6,65535
1778033309.984707,1,411,7,65535
1778033309.984707,1,411,8,65535
1778033309.984707,1,411,9,65535
1778033309.984707,1,411,10,65535
1778033309.984707,1,411,11,65535
1778033309.984707,1,411,12,65535
1778033309.984707,1,411,13,65535
1778033309.984707,1,411,14,65535
1778033309.984707,1,411,15,65535
1778033309.984707,1,411,16,65535
1778033309.984707,1,411,17,65535
1778033309.984707,1,411,18,65535
1778033309.984707,1,411,19,65535
1778033309.984707,1,411,20,65535
1778033309.984707,1,411,21,65535
1778033309.984707,1,411,22,65535
1778033309.984707,1,411,23,65535
1778033309.984707,1,411,24,65535
1778033309.984707,1,411,25,65535
1778033309.984707,1,411,26,65535
1778033309.984707,1,411,27,65535
1778033309.984707,1,411,28,65535
1778033309.984707,1,411,29,65535
1778033309.984707,1,411,30,65535
1778033309.984707,1,411,31,65535
1778033310.089292,1,412,0,65535
1778033310.089292,1,412,1,65535
1778033310.089292,1,412,2,65535
1778033310.089292,1,412,3,65535
1778033310.089292,1,412,4,65535
1778033310.089292,1,412,5,65535
1778033310.089292,1,412,6,65535
1778033310.089292,1,412,7,65535
1778033310.089292,1,412,8,65535
1778033310.089292,1,412,9,65535
1778033310.089292,1,412,10,65535
1778033310.089292,1,412,11,65535
1778033310.089292,1,412,12,65535
1778033310.089292,1,412,13,65535
1778033310.089292,1,412,14,65535
1778033310.089292,1,412,15,65535
1778033310.089292,1,412,16,65535
1778033310.089292,1,412,17,65535
1778033310.089292,1,412,18,65535
1778033310.089292,1,412,19,65535
1778033310.089292,1,412,20,65535
1778033310.089292,1,412,21,65535
1778033310.089292,1,412,22,65535
1778033310.089292,1,412,23,65535
1778033310.089292,1,412,24,65535
1778033310.089292,1,412,25,65535
1778033310.089292,1,412,26,65535
1778033310.089292,1,412,27,65535
1778033310.089292,1,412,28,65535
1778033310.089292,1,412,29,65535
1778033310.089292,1,412,30,65535
1778033310.089292,1,412,31,65535
1778033310.1940951,1,413,0,65535
1778033310.1940951,1,413,1,65535
1778033310.1940951,1,413,2,65535
1778033310.1940951,1,413,3,65535
1778033310.1940951,1,413,4,65535
1778033310.1940951,1,413,5,65535
1778033310.1940951,1,413,6,65535
1778033310.1940951,1,413,7,65535
1778033310.1940951,1,413,8,65535
1778033310.1940951,1,413,9,65535
1778033310.1940951,1,413,10,65535
1778033310.1940951,1,413,11,65535
1778033310.1940951,1,413,12,65535
1778033310.1940951,1,413,13,65535
1778033310.1940951,1,413,14,65535
1778033310.1940951,1,413,15,65535
1778033310.1940951,1,413,16,65535
1778033310.1940951,1,413,17,65535
1778033310.1940951,1,413,18,65535
1778033310.1940951,1,413,19,65535
1778033310.1940951,1,413,20,65535
1778033310.1940951,1,413,21,65535
1778033310.1940951,1,413,22,65535
1778033310.1940951,1,413,23,65535
1778033310.1940951,1,413,24,65535
1778033310.1940951,1,413,25,65535
1778033310.1940951,1,413,26,65535
1778033310.1940951,1,413,27,65535
1778033310.1940951,1,413,28,65535
1778033310.1940951,1,413,29,65535
1778033310.1940951,1,413,30,65535
1778033310.1940951,1,413,31,65535
1778033310.403208,1,414,0,65535
1778033310.403208,1,414,1,65535
1778033310.403208,1,414,2,65535
1778033310.403208,1,414,3,65535
1778033310.403208,1,414,4,65535
1778033310.403208,1,414,5,65535
1778033310.403208,1,414,6,65535
1778033310.403208,1,414,7,65535
1778033310.403208,1,414,8,65535
1778033310.403208,1,414,9,65535
1778033310.403208,1,414,10,65535
1778033310.403208,1,414,11,65535
1778033310.403208,1,414,12,65535
1778033310.403208,1,414,13,65535
1778033310.403208,1,414,14,65535
1778033310.403208,1,414,15,65535
1778033310.403208,1,414,16,65535
1778033310.403208,1,414,17,65535
1778033310.403208,1,414,18,65535
1778033310.403208,1,414,19,65535
1778033310.403208,1,414,20,65535
1778033310.403208,1,414,21,65535
1778033310.403208,1,414,22,65535
1778033310.403208,1,414,23,65535
1778033310.403208,1,414,24,65535
1778033310.403208,1,414,25,65535
1778033310.403208,1,414,26,65535
1778033310.403208,1,414,27,65535
1778033310.403208,1,414,28,65535
1778033310.403208,1,414,29,65535
1778033310.403208,1,414,30,65535
1778033310.403208,1,414,31,65535
1778033310.513504,1,415,0,65535
1778033310.513504,1,415,1,65535
1778033310.513504,1,415,2,65535
1778033310.513504,1,415,3,65535
1778033310.513504,1,415,4,65535
1778033310.513504,1,415,5,65535
1778033310.513504,1,415,6,65535
1778033310.513504,1,415,7,65535
1778033310.513504,1,415,8,65535
1778033310.513504,1,415,9,65535
1778033310.513504,1,415,10,65535
1778033310.513504,1,415,11,65535
1778033310.513504,1,415,12,65535
1778033310.513504,1,415,13,65535
1778033310.513504,1,415,14,65535
1778033310.513504,1,415,15,65535
1778033310.513504,1,415,16,65535
1778033310.513504,1,415,17,65535
1778033310.513504,1,415,18,65535
1778033310.513504,1,415,19,65535
1778033310.513504,1,415,20,65535
1778033310.513504,1,415,21,65535
1778033310.513504,1,415,22,65535
1778033310.513504,1,415,23,65535
1778033310.513504,1,415,24,65535
1778033310.513504,1,415,25,65535
1778033310.513504,1,415,26,65535
1778033310.513504,1,415,27,65535
1778033310.513504,1,415,28,65535
1778033310.513504,1,415,29,65535
1778033310.513504,1,415,30,65535
1778033310.513504,1,415,31,65535
1778033310.61781,1,416,0,65535
1778033310.61781,1,416,1,65535
1778033310.61781,1,416,2,65535
1778033310.61781,1,416,3,65535
1778033310.61781,1,416,4,65535
1778033310.61781,1,416,5,65535
1778033310.61781,1,416,6,65535
1778033310.61781,1,416,7,65535
1778033310.61781,1,416,8,65535
1778033310.61781,1,416,9,65535
1778033310.61781,1,416,10,65535
1778033310.61781,1,416,11,65535
1778033310.61781,1,416,12,65535
1778033310.61781,1,416,13,65535
1778033310.61781,1,416,14,65535
1778033310.61781,1,416,15,65535
1778033310.61781,1,416,16,65535
1778033310.61781,1,416,17,65535
1778033310.61781,1,416,18,65535
1778033310.61781,1,416,19,65535
1778033310.61781,1,416,20,65535
1778033310.61781,1,416,21,65535
1778033310.61781,1,416,22,65535
1778033310.61781,1,416,23,65535
1778033310.61781,1,416,24,65535
1778033310.61781,1,416,25,65535
1778033310.61781,1,416,26,65535
1778033310.61781,1,416,27,65535
1778033310.61781,1,416,28,65535
1778033310.61781,1,416,29,65535
1778033310.61781,1,416,30,65535
1778033310.61781,1,416,31,65535
1778033310.7225978,1,417,0,65535
1778033310.7225978,1,417,1,65535
1778033310.7225978,1,417,2,65535
1778033310.7225978,1,417,3,65535
1778033310.7225978,1,417,4,65535
1778033310.7225978,1,417,5,65535
1778033310.7225978,1,417,6,65535
1778033310.7225978,1,417,7,65535
1778033310.7225978,1,417,8,65535
1778033310.7225978,1,417,9,65535
1778033310.7225978,1,417,10,65535
1778033310.7225978,1,417,11,65535
1778033310.7225978,1,417,12,65535
1778033310.7225978,1,417,13,65535
1778033310.7225978,1,417,14,65535
1778033310.7225978,1,417,15,65535
1778033310.7225978,1,417,16,65535
1778033310.7225978,1,417,17,65535
1778033310.7225978,1,417,18,65535
1778033310.7225978,1,417,19,65535
1778033310.7225978,1,417,20,65535
1778033310.7225978,1,417,21,65535
1778033310.7225978,1,417,22,65535
1778033310.7225978,1,417,23,65535
1778033310.7225978,1,417,24,65535
1778033310.7225978,1,417,25,65535
1778033310.7225978,1,417,26,65535
1778033310.7225978,1,417,27,65535
1778033310.7225978,1,417,28,65535
1778033310.7225978,1,417,29,65535
1778033310.7225978,1,417,30,65535
1778033310.7225978,1,417,31,65535
1778033310.830442,1,418,0,65535
1778033310.830442,1,418,1,65535
1778033310.830442,1,418,2,65535
1778033310.830442,1,418,3,65535
1778033310.830442,1,418,4,65535
1778033310.830442,1,418,5,65535
1778033310.830442,1,418,6,65535
1778033310.830442,1,418,7,65535
1778033310.830442,1,418,8,65535
1778033310.830442,1,418,9,65535
1778033310.830442,1,418,10,65535
1778033310.830442,1,418,11,65535
1778033310.830442,1,418,12,65535
1778033310.830442,1,418,13,65535
1778033310.830442,1,418,14,65535
1778033310.830442,1,418,15,65535
1778033310.830442,1,418,16,65535
1778033310.830442,1,418,17,65535
1778033310.830442,1,418,18,65535
1778033310.830442,1,418,19,65535
1778033310.830442,1,418,20,65535
1778033310.830442,1,418,21,65535
1778033310.830442,1,418,22,65535
1778033310.830442,1,418,23,65535
1778033310.830442,1,418,24,65535
1778033310.830442,1,418,25,65535
1778033310.830442,1,418,26,65535
1778033310.830442,1,418,27,65535
1778033310.830442,1,418,28,65535
1778033310.830442,1,418,29,65535
1778033310.830442,1,418,30,65535
1778033310.830442,1,418,31,65535
1778033311.0363631,1,419,0,65535
1778033311.0363631,1,419,1,65535
1778033311.0363631,1,419,2,65535
1778033311.0363631,1,419,3,65535
1778033311.0363631,1,419,4,65535
1778033311.0363631,1,419,5,65535
1778033311.0363631,1,419,6,65535
1778033311.0363631,1,419,7,65535
1778033311.0363631,1,419,8,65535
1778033311.0363631,1,419,9,65535
1778033311.0363631,1,419,10,65535
1778033311.0363631,1,419,11,65535
1778033311.0363631,1,419,12,65535
1778033311.0363631,1,419,13,65535
1778033311.0363631,1,419,14,65535
1778033311.0363631,1,419,15,65535
1778033311.0363631,1,419,16,65535
1778033311.0363631,1,419,17,65535
1778033311.0363631,1,419,18,65535
1778033311.0363631,1,419,19,65535
1778033311.0363631,1,419,20,65535
1778033311.0363631,1,419,21,65535
1778033311.0363631,1,419,22,65535
1778033311.0363631,1,419,23,65535
1778033311.0363631,1,419,24,65535
1778033311.0363631,1,419,25,65535
1778033311.0363631,1,419,26,65535
1778033311.0363631,1,419,27,65535
1778033311.0363631,1,419,28,65535
1778033311.0363631,1,419,29,65535
1778033311.0363631,1,419,30,65535
1778033311.0363631,1,419,31,65535
1778033311.142879,1,420,0,65535
1778033311.142879,1,420,1,65535
1778033311.142879,1,420,2,65535
1778033311.142879,1,420,3,65535
1778033311.142879,1,420,4,65535
1778033311.142879,1,420,5,65535
1778033311.142879,1,420,6,65535
1778033311.142879,1,420,7,65535
1778033311.142879,1,420,8,65535
1778033311.142879,1,420,9,65535
1778033311.142879,1,420,10,65535
1778033311.142879,1,420,11,65535
1778033311.142879,1,420,12,65535
1778033311.142879,1,420,13,65535
1778033311.142879,1,420,14,65535
1778033311.142879,1,420,15,65535
1778033311.142879,1,420,16,65535
1778033311.142879,1,420,17,65535
1778033311.142879,1,420,18,65535
1778033311.142879,1,420,19,65535
1778033311.142879,1,420,20,65535
1778033311.142879,1,420,21,65535
1778033311.142879,1,420,22,65535
1778033311.142879,1,420,23,65535
1778033311.142879,1,420,24,65535
1778033311.142879,1,420,25,65535
1778033311.142879,1,420,26,65535
1778033311.142879,1,420,27,65535
1778033311.142879,1,420,28,65535
1778033311.142879,1,420,29,65535
1778033311.142879,1,420,30,65535
1778033311.142879,1,420,31,65535
1778033311.250596,1,421,0,65535
1778033311.250596,1,421,1,65535
1778033311.250596,1,421,2,65535
1778033311.250596,1,421,3,65535
1778033311.250596,1,421,4,65535
1778033311.250596,1,421,5,65535
1778033311.250596,1,421,6,65535
1778033311.250596,1,421,7,65535
1778033311.250596,1,421,8,65535
1778033311.250596,1,421,9,65535
1778033311.250596,1,421,10,65535
1778033311.250596,1,421,11,65535
1778033311.250596,1,421,12,65535
1778033311.250596,1,421,13,65535
1778033311.250596,1,421,14,65535
1778033311.250596,1,421,15,65535
1778033311.250596,1,421,16,65535
1778033311.250596,1,421,17,65535
1778033311.250596,1,421,18,65535
1778033311.250596,1,421,19,65535
1778033311.250596,1,421,20,65535
1778033311.250596,1,421,21,65535
1778033311.250596,1,421,22,65535
1778033311.250596,1,421,23,65535
1778033311.250596,1,421,24,65535
1778033311.250596,1,421,25,65535
1778033311.250596,1,421,26,65535
1778033311.250596,1,421,27,65535
1778033311.250596,1,421,28,65535
1778033311.250596,1,421,29,65535
1778033311.250596,1,421,30,65535
1778033311.250596,1,421,31,65535
1778033311.355288,1,422,0,65535
1778033311.355288,1,422,1,65535
1778033311.355288,1,422,2,65535
1778033311.355288,1,422,3,65535
1778033311.355288,1,422,4,65535
1778033311.355288,1,422,5,65535
1778033311.355288,1,422,6,65535
1778033311.355288,1,422,7,65535
1778033311.355288,1,422,8,65535
1778033311.355288,1,422,9,65535
1778033311.355288,1,422,10,65535
1778033311.355288,1,422,11,65535
1778033311.355288,1,422,12,65535
1778033311.355288,1,422,13,65535
1778033311.355288,1,422,14,65535
1778033311.355288,1,422,15,65535
1778033311.355288,1,422,16,65535
1778033311.355288,1,422,17,65535
1778033311.355288,1,422,18,65535
1778033311.355288,1,422,19,65535
1778033311.355288,1,422,20,65535
1778033311.355288,1,422,21,65535
1778033311.355288,1,422,22,65535
1778033311.355288,1,422,23,65535
1778033311.355288,1,422,24,65535
1778033311.355288,1,422,25,65535
1778033311.355288,1,422,26,65535
1778033311.355288,1,422,27,65535
1778033311.355288,1,422,28,65535
1778033311.355288,1,422,29,65535
1778033311.355288,1,422,30,65535
1778033311.355288,1,422,31,65535
1778033311.4599922,1,423,0,65535
1778033311.4599922,1,423,1,65535
1778033311.4599922,1,423,2,65535
1778033311.4599922,1,423,3,65535
1778033311.4599922,1,423,4,65535
1778033311.4599922,1,423,5,65535
1778033311.4599922,1,423,6,65535
1778033311.4599922,1,423,7,65535
1778033311.4599922,1,423,8,65535
1778033311.4599922,1,423,9,65535
1778033311.4599922,1,423,10,65535
1778033311.4599922,1,423,11,65535
1778033311.4599922,1,423,12,65535
1778033311.4599922,1,423,13,65535
1778033311.4599922,1,423,14,65535
1778033311.4599922,1,423,15,65535
1778033311.4599922,1,423,16,65535
1778033311.4599922,1,423,17,65535
1778033311.4599922,1,423,18,65535
1778033311.4599922,1,423,19,65535
1778033311.4599922,1,423,20,65535
1778033311.4599922,1,423,21,65535
1778033311.4599922,1,423,22,65535
1778033311.4599922,1,423,23,65535
1778033311.4599922,1,423,24,65535
1778033311.4599922,1,423,25,65535
1778033311.4599922,1,423,26,65535
1778033311.4599922,1,423,27,65535
1778033311.4599922,1,423,28,65535
1778033311.4599922,1,423,29,65535
1778033311.4599922,1,423,30,65535
1778033311.4599922,1,423,31,65535
1778033311.6659598,1,424,0,65535
1778033311.6659598,1,424,1,65535
1778033311.6659598,1,424,2,65535
1778033311.6659598,1,424,3,65535
1778033311.6659598,1,424,4,65535
1778033311.6659598,1,424,5,65535
1778033311.6659598,1,424,6,65535
1778033311.6659598,1,424,7,65535
1778033311.6659598,1,424,8,65535
1778033311.6659598,1,424,9,65535
1778033311.6659598,1,424,10,65535
1778033311.6659598,1,424,11,65535
1778033311.6659598,1,424,12,65535
1778033311.6659598,1,424,13,65535
1778033311.6659598,1,424,14,65535
1778033311.6659598,1,424,15,65535
1778033311.6659598,1,424,16,65535
1778033311.6659598,1,424,17,65535
1778033311.6659598,1,424,18,65535
1778033311.6659598,1,424,19,65535
1778033311.6659598,1,424,20,65535
1778033311.6659598,1,424,21,65535
1778033311.6659598,1,424,22,65535
1778033311.6659598,1,424,23,65535
1778033311.6659598,1,424,24,65535
1778033311.6659598,1,424,25,65535
1778033311.6659598,1,424,26,65535
1778033311.6659598,1,424,27,65535
1778033311.6659598,1,424,28,65535
1778033311.6659598,1,424,29,65535
1778033311.6659598,1,424,30,65535
1778033311.6659598,1,424,31,65535
1778033311.777815,1,425,0,65535
1778033311.777815,1,425,1,65535
1778033311.777815,1,425,2,65535
1778033311.777815,1,425,3,65535
1778033311.777815,1,425,4,65535
1778033311.777815,1,425,5,65535
1778033311.777815,1,425,6,65535
1778033311.777815,1,425,7,65535
1778033311.777815,1,425,8,65535
1778033311.777815,1,425,9,65535
1778033311.777815,1,425,10,65535
1778033311.777815,1,425,11,65535
1778033311.777815,1,425,12,65535
1778033311.777815,1,425,13,65535
1778033311.777815,1,425,14,65535
1778033311.777815,1,425,15,65535
1778033311.777815,1,425,16,65535
1778033311.777815,1,425,17,65535
1778033311.777815,1,425,18,65535
1778033311.777815,1,425,19,65535
1778033311.777815,1,425,20,65535
1778033311.777815,1,425,21,65535
1778033311.777815,1,425,22,65535
1778033311.777815,1,425,23,65535
1778033311.777815,1,425,24,65535
1778033311.777815,1,425,25,65535
1778033311.777815,1,425,26,65535
1778033311.777815,1,425,27,65535
1778033311.777815,1,425,28,65535
1778033311.777815,1,425,29,65535
1778033311.777815,1,425,30,65535
1778033311.777815,1,425,31,65535
1778033311.882377,1,426,0,65535
1778033311.882377,1,426,1,65535
1778033311.882377,1,426,2,65535
1778033311.882377,1,426,3,65535
1778033311.882377,1,426,4,65535
1778033311.882377,1,426,5,65535
1778033311.882377,1,426,6,65535
1778033311.882377,1,426,7,65535
1778033311.882377,1,426,8,65535
1778033311.882377,1,426,9,65535
1778033311.882377,1,426,10,65535
1778033311.882377,1,426,11,65535
1778033311.882377,1,426,12,65535
1778033311.882377,1,426,13,65535
1778033311.882377,1,426,14,65535
1778033311.882377,1,426,15,65535
1778033311.882377,1,426,16,65535
1778033311.882377,1,426,17,65535
1778033311.882377,1,426,18,65535
1778033311.882377,1,426,19,65535
1778033311.882377,1,426,20,65535
1778033311.882377,1,426,21,65535
1778033311.882377,1,426,22,65535
1778033311.882377,1,426,23,65535
1778033311.882377,1,426,24,65535
1778033311.882377,1,426,25,65535
1778033311.882377,1,426,26,65535
1778033311.882377,1,426,27,65535
1778033311.882377,1,426,28,65535
1778033311.882377,1,426,29,65535
1778033311.882377,1,426,30,65535
1778033311.882377,1,426,31,65535
1778033311.9861498,1,427,0,65535
1778033311.9861498,1,427,1,65535
1778033311.9861498,1,427,2,65535
1778033311.9861498,1,427,3,65535
1778033311.9861498,1,427,4,65535
1778033311.9861498,1,427,5,65535
1778033311.9861498,1,427,6,65535
1778033311.9861498,1,427,7,65535
1778033311.9861498,1,427,8,65535
1778033311.9861498,1,427,9,65535
1778033311.9861498,1,427,10,65535
1778033311.9861498,1,427,11,65535
1778033311.9861498,1,427,12,65535
1778033311.9861498,1,427,13,65535
1778033311.9861498,1,427,14,65535
1778033311.9861498,1,427,15,65535
1778033311.9861498,1,427,16,65535
1778033311.9861498,1,427,17,65535
1778033311.9861498,1,427,18,65535
1778033311.9861498,1,427,19,65535
1778033311.9861498,1,427,20,65535
1778033311.9861498,1,427,21,65535
1778033311.9861498,1,427,22,65535
1778033311.9861498,1,427,23,65535
1778033311.9861498,1,427,24,65535
1778033311.9861498,1,427,25,65535
1778033311.9861498,1,427,26,65535
1778033311.9861498,1,427,27,65535
1778033311.9861498,1,427,28,65535
1778033311.9861498,1,427,29,65535
1778033311.9861498,1,427,30,65535
1778033311.9861498,1,427,31,65535
1778033312.192197,1,428,0,65535
1778033312.192197,1,428,1,65535
1778033312.192197,1,428,2,65535
1778033312.192197,1,428,3,65535
1778033312.192197,1,428,4,65535
1778033312.192197,1,428,5,65535
1778033312.192197,1,428,6,65535
1778033312.192197,1,428,7,65535
1778033312.192197,1,428,8,65535
1778033312.192197,1,428,9,65535
1778033312.192197,1,428,10,65535
1778033312.192197,1,428,11,65535
1778033312.192197,1,428,12,65535
1778033312.192197,1,428,13,65535
1778033312.192197,1,428,14,65535
1778033312.192197,1,428,15,65535
1778033312.192197,1,428,16,65535
1778033312.192197,1,428,17,65535
1778033312.192197,1,428,18,65535
1778033312.192197,1,428,19,65535
1778033312.192197,1,428,20,65535
1778033312.192197,1,428,21,65535
1778033312.192197,1,428,22,65535
1778033312.192197,1,428,23,65535
1778033312.192197,1,428,24,65535
1778033312.192197,1,428,25,65535
1778033312.192197,1,428,26,65535
1778033312.192197,1,428,27,65535
1778033312.192197,1,428,28,65535
1778033312.192197,1,428,29,65535
1778033312.192197,1,428,30,65535
1778033312.192197,1,428,31,65535
1778033312.302814,1,429,0,65535
1778033312.302814,1,429,1,65535
1778033312.302814,1,429,2,65535
1778033312.302814,1,429,3,65535
1778033312.302814,1,429,4,65535
1778033312.302814,1,429,5,65535
1778033312.302814,1,429,6,65535
1778033312.302814,1,429,7,65535
1778033312.302814,1,429,8,65535
1778033312.302814,1,429,9,65535
1778033312.302814,1,429,10,65535
1778033312.302814,1,429,11,65535
1778033312.302814,1,429,12,65535
1778033312.302814,1,429,13,65535
1778033312.302814,1,429,14,65535
1778033312.302814,1,429,15,65535
1778033312.302814,1,429,16,65535
1778033312.302814,1,429,17,65535
1778033312.302814,1,429,18,65535
1778033312.302814,1,429,19,65535
1778033312.302814,1,429,20,65535
1778033312.302814,1,429,21,65535
1778033312.302814,1,429,22,65535
1778033312.302814,1,429,23,65535
1778033312.302814,1,429,24,65535
1778033312.302814,1,429,25,65535
1778033312.302814,1,429,26,65535
1778033312.302814,1,429,27,65535
1778033312.302814,1,429,28,65535
1778033312.302814,1,429,29,65535
1778033312.302814,1,429,30,65535
1778033312.302814,1,429,31,65535
1778033312.407422,1,430,0,65535
1778033312.407422,1,430,1,65535
1778033312.407422,1,430,2,65535
1778033312.407422,1,430,3,65535
1778033312.407422,1,430,4,65535
1778033312.407422,1,430,5,65535
1778033312.407422,1,430,6,65535
1778033312.407422,1,430,7,65535
1778033312.407422,1,430,8,65535
1778033312.407422,1,430,9,65535
1778033312.407422,1,430,10,65535
1778033312.407422,1,430,11,65535
1778033312.407422,1,430,12,65535
1778033312.407422,1,430,13,65535
1778033312.407422,1,430,14,65535
1778033312.407422,1,430,15,65535
1778033312.407422,1,430,16,65535
1778033312.407422,1,430,17,65535
1778033312.407422,1,430,18,65535
1778033312.407422,1,430,19,65535
1778033312.407422,1,430,20,65535
1778033312.407422,1,430,21,65535
1778033312.407422,1,430,22,65535
1778033312.407422,1,430,23,65535
1778033312.407422,1,430,24,65535
1778033312.407422,1,430,25,65535
1778033312.407422,1,430,26,65535
1778033312.407422,1,430,27,65535
1778033312.407422,1,430,28,65535
1778033312.407422,1,430,29,65535
1778033312.407422,1,430,30,65535
1778033312.407422,1,430,31,65535
1778033312.512167,1,431,0,65535
1778033312.512167,1,431,1,65535
1778033312.512167,1,431,2,65535
1778033312.512167,1,431,3,65535
1778033312.512167,1,431,4,65535
1778033312.512167,1,431,5,65535
1778033312.512167,1,431,6,65535
1778033312.512167,1,431,7,65535
1778033312.512167,1,431,8,65535
1778033312.512167,1,431,9,65535
1778033312.512167,1,431,10,65535
1778033312.512167,1,431,11,65535
1778033312.512167,1,431,12,65535
1778033312.512167,1,431,13,65535
1778033312.512167,1,431,14,65535
1778033312.512167,1,431,15,65535
1778033312.512167,1,431,16,65535
1778033312.512167,1,431,17,65535
1778033312.512167,1,431,18,65535
1778033312.512167,1,431,19,65535
1778033312.512167,1,431,20,65535
1778033312.512167,1,431,21,65535
1778033312.512167,1,431,22,65535
1778033312.512167,1,431,23,65535
1778033312.512167,1,431,24,65535
1778033312.512167,1,431,25,65535
1778033312.512167,1,431,26,65535
1778033312.512167,1,431,27,65535
1778033312.512167,1,431,28,65535
1778033312.512167,1,431,29,65535
1778033312.512167,1,431,30,65535
1778033312.512167,1,431,31,65535
